Potential - Start -0.2 V, Upper Vertex 1.5 V, Lower Vertex -0.2 V, Stop -0.19 V; Scan - # end cross 5, Rate 0.1 Vps, Step 0.01 V 
Scan	Index	Time (s)	Potential applied (V)	WE(1).Potential (V)	WE(1).Current (A)	WE(1).Power (W)	WE(1).Resistance (Ω)	WE(1).Charge (C)
1	1	66.2075788328419	-0.189971923828125	-0.1898193359375	-2.06298828125E-07	3.91595058601979E-08	920118.375	0
1	2	66.3082868325877	-0.179901123046875	-0.17974853515625	-1.727294921875E-07	3.10478718290597E-08	1040636.0625	-1.90855917736599E-08
1	3	66.4089948323334	-0.169830322265625	-0.169677734375	-1.45568847656249E-07	2.46997924335801E-08	1165618.5	-3.51131852482922E-08
1	4	66.5097028320791	-0.159759521484375	-0.159637451171875	-1.22985839843751E-07	1.96331448876208E-08	1298014.875	-4.86359894580346E-08
1	5	66.6104108318249	-0.149688720703125	-0.14959716796875	-1.01623535156251E-07	1.52025929622823E-08	1472072.125	-5.99459681893677E-08
1	6	66.7111188315706	-0.139617919921875	-0.139495849609375	-8.14819335937494E-08	1.13663904954819E-08	1711985.125	-6.91660630991464E-08
1	7	66.8118268313164	-0.129547119140625	-0.12945556640625	-6.22558593750003E-08	8.05936739567414E-09	2079411.875	-7.64038361467101E-08
1	8	66.9125348310621	-0.119476318359375	-0.119384765625	-4.15039062499997E-08	4.95493424068627E-09	2876470.5	-8.16285492533098E-08
1	9	67.0132428308078	-0.109405517578125	-0.10931396484375	-1.86157226562497E-08	2.03495842399093E-09	5872131.5	-8.46558165790157E-08
1	10	67.1139508305536	-0.099334716796875	-0.099273681640625	8.54492187500056E-09	-8.48285885979294E-10	-11617857	-8.51629238241003E-08
1	11	67.2146588302993	-0.089263916015625	-0.089263916015625	4.05883789062506E-08	-3.6230776156998E-09	-2199248	-8.26888637561751E-08
1	12	67.315366830045	-0.079193115234375	-0.0792236328125	8.087158203125E-08	-6.4069403116207E-09	-979622.6875	-7.65728671581201E-08
1	13	67.4160748297908	-0.069122314453125	-0.06903076171875	1.3427734375E-07	-9.26926713162857E-09	-514090.90625	-6.57392575931226E-08
1	14	67.5167828295365	-0.059051513671875	-0.059051513671875	2.05078124999999E-07	-1.21101733085993E-08	-287946.4375	-4.86513549446954E-08
1	15	67.6174908292822	-0.048980712890625	-0.0488433837890625	2.978515625E-07	-1.45480782975937E-08	-163985.65625	-2.33268337979098E-08
1	16	67.718198829028	-0.038909912109375	-0.03875732421875	4.1961669921875E-07	-1.62632201039514E-08	-92363.640625	1.28005632760164E-08
1	17	67.8189068287737	-0.028839111328125	-0.0287139892578125	5.7342529296875E-07	-1.6465326879711E-08	-50074.51171875	6.28041973982363E-08
1	18	67.9196148285195	-0.018768310546875	-0.0186737060546875	7.611083984375E-07	-1.42127145608129E-08	-24534.884765625	1.30003300569115E-07
1	19	68.0203228282652	-0.008697509765625	-0.00856628417968749	9.735107421875E-07	-8.33937008337671E-09	-8799.373046875	2.17348315345589E-07
1	20	68.1210308280109	0.001373291015625	0.00145568847656249	1.19903564453125E-06	1.74542236219821E-09	1214.04943847656	3.26744725498429E-07
1	21	68.2217388277567	0.011444091796875	0.0115081787109375	1.4178466796875E-06	1.63168323297214E-08	8116.65966796875	4.58515216905653E-07
1	22	68.3224468275024	0.021514892578125	0.0215972900390625	1.6064453125E-06	3.46948638707545E-08	13444.1494140625	6.10800384492904E-07
1	23	68.4231548272481	0.031585693359375	0.0316802978515625	1.7474365234375E-06	5.53593082486259E-08	18129.583984375	7.79681784024433E-07
1	24	68.5238628269939	0.041656494140625	0.0417724609375	1.83349609375E-06	7.65896430721114E-08	22782.95703125	9.59995986704598E-07
1	25	68.6245708267396	0.051727294921875	0.051788330078125	1.86553955078125E-06	9.66131779023272E-08	27760.51171875	1.14625731839624E-06
1	26	68.7252788264854	0.061798095703125	0.061920166015625	1.85455322265625E-06	1.14834236342176E-07	33388.1875	1.33357877984963E-06
1	27	68.8259868262311	0.071868896484375	0.07196044921875	1.81365966796875E-06	1.30511764950825E-07	39676.9296875	1.5182880588327E-06
1	28	68.9266948259768	0.081939697265625	0.08197021484375	1.756591796875E-06	1.43988202694345E-07	46664.3515625	1.69806446592702E-06
1	29	69.0274028257226	0.092010498046875	0.092071533203125	1.69219970703125E-06	1.55803419943368E-07	54409.37890625	1.87172486221243E-06
1	30	69.1281108254683	0.102081298828125	0.1021728515625	1.62689208984375E-06	1.66224197073461E-07	62802.4765625	2.03885451810493E-06
1	31	69.228818825214	0.112152099609375	0.112274169921875	1.56463623046875E-06	1.75668219526415E-07	71757.3671875	2.19956064029248E-06
1	32	69.3295268249598	0.122222900390625	0.12225341796875	1.50665283203125E-06	1.84193453378612E-07	81142.3984375	2.35421225625032E-06
1	33	69.4302348247055	0.132293701171875	0.132354736328125	1.45477294921875E-06	1.92546082189438E-07	90979.65625	2.50333187068463E-06
1	34	69.5309428244512	0.142364501953125	0.14239501953125	1.407470703125E-06	2.00416820916871E-07	101170.859375	2.64745744971151E-06
1	35	69.631650824197	0.152435302734375	0.152435302734375	1.365966796875E-06	2.08221564435007E-07	111595.171875	2.78711104328977E-06
1	36	69.7323588239427	0.162506103515625	0.162567138671875	1.3287353515625E-06	2.16008686493296E-07	122347.2734375	2.922800149463E-06
1	37	69.8330668236885	0.172576904296875	0.172607421875	1.29608154296875E-06	2.23713300329109E-07	133176.359375	3.0549701932614E-06
1	38	69.9337748234342	0.182647705078125	0.18267822265625	1.2664794921875E-06	2.31358214364263E-07	144240.96875	3.18400520882278E-06
1	39	70.0344828231799	0.192718505859375	0.1927490234375	1.2396240234375E-06	2.38936308960547E-07	155489.90625	3.31019759869378E-06
1	40	70.1351908229257	0.202789306640625	0.202789306640625	1.21673583984375E-06	2.46740995635264E-07	166666.671875	3.43388524015609E-06
1	41	70.2358988226714	0.212860107421875	0.212860107421875	1.19537353515625E-06	2.54447343195352E-07	178069.953125	3.55534461959905E-06
1	42	70.3366068224171	0.222930908203125	0.222930908203125	1.1767578125E-06	2.62335674960923E-07	189445.03125	3.67479083251965E-06
1	43	70.4373148221629	0.233001708984375	0.23297119140625	1.1590576171875E-06	2.70027015858432E-07	201000.53125	3.79240850634233E-06
1	44	70.5380228219086	0.243072509765625	0.243072509765625	1.14349365234375E-06	2.77951869520621E-07	212570.0625	3.90835111829801E-06
1	45	70.6387308216543	0.253143310546875	0.253143310546875	1.12945556640625E-06	2.8591412615242E-07	224128.625	4.02280329581117E-06
1	46	70.7394388214001	0.263214111328125	0.26324462890625	1.11663818359375E-06	2.93949000251814E-07	235747.484375	4.13590305470279E-06
1	47	70.8401468211458	0.273284912109375	0.27325439453125	1.104736328125E-06	3.01874052865969E-07	247348.078125	4.24775817009504E-06
1	48	70.9408548208916	0.283355712890625	0.28338623046875	1.09375E-06	3.09953691157716E-07	259095.96875	4.35846050095279E-06
1	49	71.0415628206373	0.293426513671875	0.29339599609375	1.0845947265625E-06	3.18215739980587E-07	270512.09375	4.46814919996541E-06
1	50	71.142270820383	0.303497314453125	0.303497314453125	1.07574462890625E-06	3.26485604773552E-07	282127.65625	4.57693067801301E-06
1	51	71.2429788201288	0.313568115234375	0.3135986328125	1.06842041015625E-06	3.3505517649246E-07	293516.15625	4.68489815830253E-06
1	52	71.3436868198745	0.323638916015625	0.323699951171875	1.06109619140625E-06	3.43476784792074E-07	305061.84375	4.79212758364156E-06
1	53	71.4443948196202	0.333709716796875	0.333740234375	1.0552978515625E-06	3.52195343111816E-07	316252.15625	4.8986967158271E-06
1	54	71.545102819366	0.343780517578125	0.34381103515625	1.0498046875E-06	3.60934421905768E-07	327500.03125	5.00469695907668E-06
1	55	71.6458108191117	0.353851318359375	0.35382080078125	1.044921875E-06	3.69715081660615E-07	338609.8125	5.1101746976201E-06
1	56	71.7465188188575	0.363922119140625	0.363922119140625	1.041259765625E-06	3.78937471623431E-07	349501.75	5.21522224516957E-06
1	57	71.8472268186032	0.373992919921875	0.373992919921875	1.0382080078125E-06	3.88282444419019E-07	360229.28125	5.31993191543734E-06
1	58	71.9479348183489	0.384063720703125	0.384124755859375	1.0357666015625E-06	3.97863573198265E-07	370860.34375	5.42436464456841E-06
1	59	72.0486428180947	0.394134521484375	0.394134521484375	1.03424072265625E-06	4.07629954679578E-07	381085.90625	5.5285981943598E-06
1	60	72.1493508178404	0.404205322265625	0.404205322265625	1.03271484375E-06	4.1742885059648E-07	391400.6875	5.63267758479924E-06
1	61	72.2500588175861	0.414276123046875	0.414276123046875	1.031494140625E-06	4.27323385565614E-07	401627.25	5.73661873204401E-06
1	62	72.3507668173319	0.424346923828125	0.42425537109375	1.0308837890625E-06	4.37357954297113E-07	411545.3125	5.84046756557655E-06
1	63	72.4514748170776	0.434417724609375	0.4344482421875	1.03057861328125E-06	4.47733043529297E-07	421557.625	5.94427046962664E-06
1	64	72.5521828168233	0.444488525390625	0.44451904296875	1.0302734375E-06	4.57976170764596E-07	431457.34375	6.04804245085688E-06
1	65	72.6528908165691	0.454559326171875	0.454620361328125	1.03057861328125E-06	4.68522017627038E-07	441131.1875	6.15181488683447E-06
1	66	72.7535988163148	0.464630126953125	0.464630126953125	1.0308837890625E-06	4.78979643503408E-07	450710.5	6.25561779088457E-06
1	67	72.8543068160606	0.474700927734375	0.474700927734375	1.03179931640625E-06	4.89796093461337E-07	460070.96875	6.35948208582704E-06
1	68	72.9550148158063	0.484771728515625	0.4847412109375	1.03363037109375E-06	5.01043246003974E-07	468969.59375	6.46348462396418E-06
1	69	73.055722815552	0.494842529296875	0.494903564453125	1.03485107421875E-06	5.12151473230915E-07	478236.53125	6.56764086670591E-06
1	70	73.1564308152978	0.504913330078125	0.5048828125	1.0369873046875E-06	5.23557105225336E-07	486874.625	6.67196627546218E-06
1	71	73.2571388150435	0.514984130859375	0.515045166015625	1.03912353515625E-06	5.35195511019992E-07	495653.46875	6.77650677971542E-06
1	72	73.3578468147892	0.525054931640625	0.52508544921875	1.0418701171875E-06	5.47070783341042E-07	503983.625	6.88129330228548E-06
1	73	73.458554814535	0.535125732421875	0.53515625	1.04400634765625E-06	5.58706517495011E-07	512598.65625	6.98632538842503E-06
1	74	73.5592628142807	0.545196533203125	0.545135498046875	1.04705810546875E-06	5.70788529330457E-07	520635.40625	7.09161895429133E-06
1	75	73.6599708140265	0.555267333984375	0.555267333984375	1.0498046875E-06	5.82922211833647E-07	528924.4375	7.19720446795691E-06
1	76	73.7606788137722	0.565338134765625	0.5653076171875	1.05316162109375E-06	5.95360234001419E-07	536772	7.30309693608433E-06
1	77	73.8613868135179	0.575408935546875	0.57537841796875	1.0565185546875E-06	6.07897959525872E-07	544598.5	7.40932773624081E-06
1	78	73.9620948132637	0.585479736328125	0.58551025390625	1.05926513671875E-06	6.20210528268217E-07	552751.4375	7.51586594560649E-06
1	79	74.0628028130094	0.595550537109375	0.595611572265625	1.06292724609375E-06	6.33091758572846E-07	560350.25	7.6227270255913E-06
1	80	74.1635108127551	0.605621337890625	0.6055908203125	1.06689453125E-06	6.46101511847519E-07	567620.1875	7.72997191234026E-06
1	81	74.2642188125009	0.615692138671875	0.61566162109375	1.07086181640625E-06	6.592885029022E-07	574921.625	7.8376160672633E-06
1	82	74.3649268122466	0.625762939453125	0.625701904296875	1.07421875E-06	6.72140686219791E-07	582471.625	7.94562947703525E-06
1	83	74.4656348119923	0.635833740234375	0.635711669921875	1.077880859375E-06	6.85221436924621E-07	589779.1875	8.0539966802462E-06
1	84	74.5663428117381	0.645904541015625	0.645904541015625	1.08184814453125E-06	6.98770634244283E-07	597038.0625	8.16274769022129E-06
1	85	74.6670508114838	0.655975341796875	0.65594482421875	1.08551025390625E-06	7.12034818661778E-07	604273.25	8.27188250696054E-06
1	86	74.7677588112296	0.666046142578125	0.66595458984375	1.08917236328125E-06	7.25339305063244E-07	611431.8125	8.3813865785487E-06
1	87	74.8684668109753	0.676116943359375	0.676025390625	1.09222412109375E-06	7.38371227271273E-07	618943.8125	8.49122898216592E-06
1	88	74.969174810721	0.686187744140625	0.6861572265625	1.09527587890625E-06	7.5153144507567E-07	626469.8125	8.60137788549764E-06
1	89	75.0698828104668	0.696258544921875	0.6961669921875	1.0980224609375E-06	7.64406934194994E-07	634018.9375	8.71181964612333E-06
1	90	75.1705908102125	0.706329345703125	0.706207275390625	1.10015869140625E-06	7.7694005540252E-07	641914	8.8225069703185E-06
1	91	75.2712988099582	0.716400146484375	0.716278076171875	1.102294921875E-06	7.89549631008413E-07	649806.25	8.93340893526329E-06
1	92	75.372006809704	0.726470947265625	0.7264404296875	1.104736328125E-06	8.02525107701513E-07	657569.125	9.04454191186232E-06
1	93	75.4727148094497	0.736541748046875	0.7364501953125	1.1077880859375E-06	8.15830730971356E-07	664793.375	9.1559513748507E-06
1	94	75.5734228091954	0.746612548828125	0.7464599609375	1.11083984375E-06	8.29197404073057E-07	671978.0625	9.26766824704828E-06
1	95	75.6741308089412	0.756683349609375	0.7568359375	1.11358642578125E-06	8.42802251099783E-07	679638.25	9.37967706704512E-06
1	96	75.7748388086869	0.766754150390625	0.7672119140625	1.11724853515625E-06	8.57166355672234E-07	686697.625	9.4920087576611E-06
1	97	75.8755468084327	0.776824951171875	0.7769775390625	1.12060546875E-06	8.70685312293062E-07	693355.125	9.60469333222136E-06
1	98	75.9762548081784	0.786895751953125	0.78704833984375	1.124267578125E-06	8.84852909166511E-07	700054.3125	9.71773170022061E-06
1	99	76.0769628079241	0.796966552734375	0.797119140625	1.1285400390625E-06	8.9958086846309E-07	706327.75	9.83116933639394E-06
1	100	76.1776708076699	0.807037353515625	0.80718994140625	1.13311767578125E-06	9.14641134386329E-07	712362	9.94505262497114E-06
1	101	76.2783788074156	0.817108154296875	0.81695556640625	1.1376953125E-06	9.29446514419396E-07	718079.375	1.00593979368568E-05
1	102	76.3790868071613	0.827178955078125	0.826416015625	1.1431884765625E-06	9.44749274367496E-07	722904.4375	1.01742489277967E-05
1	103	76.4797948069071	0.837249755859375	0.83740234375	1.1480712890625E-06	9.61397631726868E-07	729399.25	1.02896228781901E-05
1	104	76.5805028066528	0.847320556640625	0.8477783203125	1.153564453125E-06	9.77966919890605E-07	734920.625	1.04055197880371E-05
1	105	76.6812108063986	0.857391357421875	0.8575439453125	1.1578369140625E-06	9.92896048046532E-07	740643.125	1.05219078250229E-05
1	106	76.7819188061443	0.867462158203125	0.867919921875	1.163330078125E-06	1.00967724847578E-06	746065.125	1.06387878986425E-05
1	107	76.88262680589	0.877532958984375	0.87738037109375	1.1688232421875E-06	1.02550256997347E-06	750652.75	1.07562218545354E-05
1	108	76.9833348056358	0.887603759765625	0.8880615234375	1.17401123046875E-06	1.04259424915654E-06	756433.5625	1.08741924123024E-05
1	109	77.0840428053815	0.897674560546875	0.8978271484375	1.17889404296875E-06	1.05844299014279E-06	761584.3125	1.09926704681129E-05
1	110	77.1847508051272	0.907745361328125	0.908203125	1.18438720703125E-06	1.07566415863403E-06	766812.6875	1.1111671483377E-05
1	111	77.285458804873	0.917816162109375	0.91766357421875	1.18988037109375E-06	1.09190978037077E-06	771223.4375	1.12312254714197E-05
1	112	77.3861668046187	0.927886962890625	0.92742919921875	1.19415283203125E-06	1.10749215309625E-06	776642	1.13512705866015E-05
1	113	77.4868748043644	0.937957763671875	0.9381103515625	1.1993408203125E-06	1.12511395400361E-06	782188.3125	1.14717931865016E-05
1	114	77.5875828041102	0.948028564453125	0.9478759765625	1.20452880859375E-06	1.14174383725185E-06	786926.8125	1.15928369268659E-05
1	115	77.6882908038559	0.958099365234375	0.958251953125	1.2103271484375E-06	1.15979833026358E-06	791729.6875	1.17144345495035E-05
1	116	77.7889988036017	0.968170166015625	0.968017578125	1.2158203125E-06	1.1769353704949E-06	796184.75	1.18366015158244E-05
1	117	77.8897068033474	0.978240966796875	0.97808837890625	1.220703125E-06	1.19395554065704E-06	801250	1.19592896226095E-05
1	118	77.9904148030931	0.988311767578125	0.98876953125	1.2255859375E-06	1.21182199563918E-06	806772.875	1.20824706755229E-05
1	119	78.0911228028389	0.998382568359375	0.99853515625	1.23138427734375E-06	1.22958044812549E-06	810904.625	1.22061883303104E-05
1	120	78.1918308025846	1.00845336914063	1.00799560546875	1.23779296875E-06	1.24768985187984E-06	814349.125	1.2330521713011E-05
1	121	78.2925388023303	1.01852416992188	1.01837158203125	1.2432861328125E-06	1.26612724216102E-06	819096.75	1.24554535432253E-05
1	122	78.3932468020761	1.02859497070313	1.02874755859375	1.248779296875E-06	1.28467866034043E-06	823802.5	1.2580939255713E-05
1	123	78.4939548018218	1.03866577148438	1.038818359375	1.25457763671875E-06	1.3032781680522E-06	828022.4375	1.27069934023893E-05
1	124	78.5946628015676	1.04873657226563	1.048583984375	1.26007080078125E-06	1.32129002849979E-06	832162.75	1.28336159832543E-05
1	125	78.6953708013133	1.05880737304688	1.05865478515625	1.26617431640625E-06	1.3404414858087E-06	836105.0625	1.29608224597177E-05
1	126	78.796078801059	1.06887817382813	1.06903076171875	1.27197265625E-06	1.35977791160258E-06	840451.0625	1.30886282931897E-05
1	127	78.8967868008048	1.07894897460938	1.07879638671875	1.278076171875E-06	1.37878396344604E-06	844078.3125	1.32170334836701E-05
1	128	78.9974948005505	1.08901977539063	1.0888671875	1.2841796875E-06	1.3983011513119E-06	847908.75	1.33460534925689E-05
1	129	79.0982028002962	1.09909057617188	1.0986328125	1.290283203125E-06	1.41754742344347E-06	851466.4375	1.34756874103914E-05
1	130	79.198910800042	1.10916137695313	1.1090087890625	1.29730224609375E-06	1.43871955060604E-06	854857.6875	1.36059834403568E-05
1	131	79.2996187997877	1.11923217773438	1.119384765625	1.3037109375E-06	1.45935405271302E-06	858614.3125	1.37369543153909E-05
1	132	79.4003267995334	1.12930297851563	1.12945556640625	1.31072998046875E-06	1.48041124248266E-06	861699.625	1.38686018544831E-05
1	133	79.5010347992792	1.13937377929688	1.1395263671875	1.31866455078125E-06	1.50265304910135E-06	864151.8125	1.40010024551884E-05
1	134	79.6017427990249	1.14944458007813	1.14898681640625	1.32598876953125E-06	1.52354357396689E-06	866513.25	1.41341715789167E-05
1	135	79.7024507987707	1.15951538085938	1.15966796875	1.33392333984375E-06	1.54690803810809E-06	869366.3125	1.42681083161733E-05
1	136	79.8031587985164	1.16958618164063	1.16943359375	1.34246826171875E-06	1.56992734900996E-06	871107.125	1.44028754220926E-05
1	137	79.9038667982621	1.17965698242188	1.17919921875	1.35040283203125E-06	1.59239402819367E-06	873220.3125	1.45384719871799E-05
1	138	80.0045747980079	1.18972778320313	1.18988037109375	1.35955810546875E-06	1.61771140483324E-06	875196.4375	1.46749298437499E-05
1	139	80.1052827977536	1.19979858398438	1.19964599609375	1.3690185546875E-06	1.64233756549947E-06	876281.8125	1.48123244798626E-05
1	140	80.2059907974993	1.20986938476563	1.21002197265625	1.3787841796875E-06	1.6683591184119E-06	877600.6875	1.49506877278327E-05
1	141	80.3066987972451	1.21994018554688	1.21978759765625	1.38885498046875E-06	1.69410805028747E-06	878268.5625	1.50900486914907E-05
1	142	80.4074067969908	1.23001098632813	1.2298583984375	1.39892578125E-06	1.72048055446794E-06	879144.875	1.52304246512358E-05
1	143	80.5081147967365	1.24008178710938	1.2396240234375	1.409912109375E-06	1.74776096173446E-06	879220.8125	1.53718610818032E-05
1	144	80.6088227964823	1.25015258789063	1.24969482421875	1.4208984375E-06	1.77568949766282E-06	879510.3125	1.55144043674227E-05
1	145	80.709530796228	1.26022338867188	1.26007080078125	1.4324951171875E-06	1.80504525815195E-06	879633.625	1.56580845214194E-05
1	146	80.8102387959738	1.27029418945313	1.2701416015625	1.4434814453125E-06	1.8334258129471E-06	879915.4375	1.58028997248039E-05
1	147	80.9109467957195	1.28036499023438	1.28021240234375	1.45538330078125E-06	1.86319971362536E-06	879639.3125	1.59488699864596E-05
1	148	81.0116547954652	1.29043579101563	1.2908935546875	1.46697998046875E-06	1.89371496617241E-06	879966.75	1.60960225912277E-05
1	149	81.112362795211	1.30050659179688	1.30035400390625	1.478271484375E-06	1.9222761693527E-06	879644.9375	1.62443284352776E-05
1	150	81.2130707949567	1.31057739257813	1.3104248046875	1.49017333984375E-06	1.95276015801937E-06	879377.4375	1.63938002515351E-05
1	151	81.3137787947024	1.32064819335938	1.32110595703125	1.50238037109375E-06	1.98480347535224E-06	879341.875	1.65444871527143E-05
1	152	81.4144867944482	1.33071899414063	1.33056640625	1.513671875E-06	2.01404077415646E-06	879032.3125	1.66963582159951E-05
1	153	81.5151947941939	1.34078979492188	1.3409423828125	1.52557373046875E-06	2.04570642381441E-06	878975.8125	1.68493970704731E-05
1	154	81.6159027939397	1.35086059570313	1.3507080078125	1.536865234375E-06	2.07585617317818E-06	878872.1875	1.70036018971587E-05
1	155	81.7166107936854	1.36093139648438	1.361083984375	1.5478515625E-06	2.10675602829724E-06	879337.5625	1.71589308592957E-05
1	156	81.8173187934311	1.37100219726563	1.37115478515625	1.5582275390625E-06	2.13657108361076E-06	879945.1875	1.73153330251807E-05
1	157	81.9180267931769	1.38107299804688	1.3812255859375	1.56768798828125E-06	2.16533067032287E-06	881059	1.74727356352378E-05
1	158	82.0187347929226	1.39114379882813	1.3909912109375	1.5765380859375E-06	2.19295043279999E-06	882307.4375	1.76310604729224E-05
1	159	82.1194427926683	1.40121459960938	1.40167236328125	1.58447265625E-06	2.22091148316395E-06	884630.1875	1.77902293216903E-05
1	160	82.2201507924141	1.41128540039063	1.4111328125	1.59271240234375E-06	2.24752875510603E-06	885993.5	1.79502148967003E-05
1	161	82.3208587921598	1.42135620117188	1.4208984375	1.5997314453125E-06	2.27305577027437E-06	888210.625	1.81109662662493E-05
1	162	82.4215667919055	1.43142700195313	1.43157958984375	1.60736083984375E-06	2.30106479648384E-06	890639.875	1.82724561454961E-05
1	163	82.5222747916513	1.44149780273438	1.44134521484375	1.61468505859375E-06	2.3273184979189E-06	892647.875	1.8434699086356E-05
1	164	82.622982791397	1.45156860351563	1.451416015625	1.6229248046875E-06	2.35553898164653E-06	894321.1875	1.85977260116488E-05
1	165	82.7236907911428	1.46163940429688	1.4617919921875	1.63238525390625E-06	2.38620759773767E-06	895494.5	1.87616442417493E-05
1	166	82.8243987908885	1.47171020507813	1.4715576171875	1.641845703125E-06	2.41607040152303E-06	896282.5625	1.89265138033079E-05
1	167	82.9251067906342	1.48178100585938	1.48162841796875	1.65283203125E-06	2.44888292399992E-06	896418.0625	1.90924147318583E-05
1	168	83.02581479038	1.49185180664063	1.49169921875	1.66534423828125E-06	2.48419246418052E-06	895730.3125	1.9259498003521E-05
1	169	83.1265227901257	1.50192260742188	1.50238037109375	1.678466796875E-06	2.52169547820813E-06	895090.9375	1.94278727576602E-05
1	170	83.2272307898714	1.49185180664063	1.49139404296875	1.5155029296875E-06	2.26021188609593E-06	984091.875	1.95887005247641E-05
1	171	83.3279387896172	1.48178100585938	1.48223876953125	1.4031982421875E-06	2.07987477551796E-06	1056328.875	1.97356694116024E-05
1	172	83.4286467893629	1.47171020507813	1.47186279296875	1.31561279296875E-06	1.93640153156593E-06	1118766	1.98725720110815E-05
1	173	83.5293547891087	1.46163940429688	1.46148681640625	1.24420166015625E-06	1.81838424850866E-06	1174638.25	2.00014692381956E-05
1	174	83.6300627888544	1.45156860351563	1.4520263671875	1.18377685546875E-06	1.71887518263247E-06	1226604.875	2.01237271539867E-05
1	175	83.7307707886001	1.44149780273438	1.44134521484375	1.131591796875E-06	1.6310143564624E-06	1273732.5	2.0240315279807E-05
1	176	83.8314787883459	1.43142700195313	1.43157958984375	1.08612060546875E-06	1.55486816311168E-06	1318066.875	2.03519866772695E-05
1	177	83.9321867880916	1.42135620117188	1.4208984375	1.04583740234375E-06	1.48602873650816E-06	1358622.75	2.04593397938879E-05
1	178	84.0328947878373	1.41128540039063	1.41082763671875	1.0089111328125E-06	1.42339968078886E-06	1398366.625	2.05628039111616E-05
1	179	84.1336027875831	1.40121459960938	1.40106201171875	9.75952148437501E-07	1.36736946387828E-06	1435584.75	2.06627501029288E-05
1	180	84.2343107873288	1.39114379882813	1.39129638671875	9.4635009765625E-07	1.31665342451015E-06	1470170.875	2.07595458050491E-05
1	181	84.3350187870745	1.38107299804688	1.38092041015625	9.1888427734375E-07	1.26890608953545E-06	1502823	2.08534675039118E-05
1	182	84.4357267868203	1.37100219726563	1.37115478515625	8.93554687500001E-07	1.22520179957064E-06	1534494.625	2.09447316592559E-05
1	183	84.536434786566	1.36093139648438	1.36077880859375	8.69140625000001E-07	1.18270804705389E-06	1565660.125	2.10334892472019E-05
1	184	84.6371427863118	1.35086059570313	1.351318359375	8.47473144531249E-07	1.14520605620783E-06	1594526.5	2.11199276236584E-05
1	185	84.7378507860575	1.34078979492188	1.34033203125	8.26416015625001E-07	1.10767177829985E-06	1621861.125	2.12042159546399E-05
1	186	84.8385587858032	1.33071899414063	1.33026123046875	8.0718994140625E-07	1.07377343283588E-06	1648015.25	2.12864742934471E-05
1	187	84.939266785549	1.32064819335938	1.32080078125	7.8857421875E-07	1.04154946711787E-06	1674922.625	2.13668263313593E-05
1	188	85.0399747852947	1.31057739257813	1.3104248046875	7.7178955078125E-07	1.01137209185254E-06	1697904.375	2.14453975786455E-05
1	189	85.1406827850404	1.30050659179688	1.30096435546875	7.5531005859375E-07	9.82631490842323E-07	1722424.25	2.1522293536691E-05
1	190	85.2413907847862	1.29043579101563	1.290283203125	7.4005126953125E-07	9.54875645220454E-07	1743505.25	2.15975906030508E-05
1	191	85.3420987845319	1.28036499023438	1.280517578125	7.25402832031249E-07	9.28891040530289E-07	1765250.375	2.16713815461844E-05
1	192	85.4428067842776	1.27029418945313	1.270751953125	7.11669921874999E-07	9.04355886177655E-07	1785591.875	2.17437445826363E-05
1	193	85.5435147840234	1.26022338867188	1.2603759765625	6.98242187500001E-07	8.80047650753113E-07	1805070	2.18147397390567E-05
1	194	85.6442227837691	1.25015258789063	1.24969482421875	6.84814453125E-07	8.55809048516676E-07	1824866.375	2.18843815673608E-05
1	195	85.7449307835149	1.24008178710938	1.2396240234375	6.72607421875E-07	8.3378034787529E-07	1843012.75	2.19527337321779E-05
1	196	85.8456387832606	1.23001098632813	1.2298583984375	6.6131591796875E-07	8.13324902537715E-07	1859714	2.20199017348932E-05
1	197	85.9463467830063	1.21994018554688	1.2200927734375	6.4971923828125E-07	7.92717685271782E-07	1877877	2.20859164983267E-05
1	198	86.0470547827521	1.20986938476563	1.209716796875	6.3812255859375E-07	7.71947497923975E-07	1895743.75	2.21507652895525E-05
1	199	86.1477627824978	1.19979858398438	1.199951171875	6.2835693359375E-07	7.53997653646366E-07	1909664.875	2.22145372390514E-05
1	200	86.2484707822435	1.18972778320313	1.18927001953125	6.17370605468751E-07	7.34220293452381E-07	1926347.125	2.22772650886327E-05
1	201	86.3491787819893	1.17965698242188	1.17950439453125	6.0760498046875E-07	7.1667273005005E-07	1941235.5	2.23389470193069E-05
1	202	86.449886781735	1.16958618164063	1.1700439453125	5.9814453125E-07	6.99855377206404E-07	1956122.375	2.23996612476185E-05
1	203	86.5505947814808	1.15951538085938	1.15966796875	5.88073730468749E-07	6.81970220739458E-07	1971977.25	2.24593932216521E-05
1	204	86.6513027812265	1.14944458007813	1.15020751953125	5.79223632812501E-07	6.66227379042539E-07	1985774.5	2.25181702262489E-05
1	205	86.7520107809722	1.13937377929688	1.1395263671875	5.69763183593749E-07	6.49260186946776E-07	2000000	2.25760268222075E-05
1	206	86.852718780718	1.12930297851563	1.12945556640625	5.60607910156249E-07	6.33181684861484E-07	2014698	2.26329448196338E-05
1	207	86.9534267804637	1.11923217773438	1.119384765625	5.523681640625E-07	6.18312469669036E-07	2026519.5	2.26889878831571E-05
1	208	87.0541347802094	1.10916137695313	1.10931396484375	5.43823242187499E-07	6.03270677856926E-07	2039843	2.27441851166077E-05
1	209	87.1548427799552	1.09909057617188	1.09893798828125	5.352783203125E-07	5.8823769677474E-07	2053021.625	2.27985219680704E-05
1	210	87.2555507797009	1.08901977539063	1.0888671875	5.27343750000001E-07	5.74207263071003E-07	2064814.875	2.28520293603651E-05
1	211	87.3562587794466	1.07894897460938	1.07879638671875	5.18798828125E-07	5.59678255740437E-07	2079411.875	2.29047072934918E-05
1	212	87.4569667791924	1.06887817382813	1.0687255859375	5.0994873046875E-07	5.44995259588177E-07	2095751	2.2956508473726E-05
1	213	87.5576747789381	1.05880737304688	1.058349609375	5.0201416015625E-07	5.31306454831793E-07	2108206.75	2.30074656428769E-05
1	214	87.6583827786839	1.04873657226563	1.04827880859375	4.93774414062501E-07	5.17613216288737E-07	2122991.5	2.30576079047751E-05
1	215	87.7590907784296	1.03866577148438	1.038818359375	4.86145019531251E-07	5.0501631676525E-07	2136848.75	2.31069498113357E-05
1	216	87.8597987781753	1.02859497070313	1.0284423828125	4.779052734375E-07	4.91497985422029E-07	2151979.75	2.31554931815481E-05
1	217	87.9605067779211	1.01852416992188	1.0186767578125	4.69970703125E-07	4.78748233945225E-07	2167532.5	2.32032234634971E-05
1	218	88.0612147776668	1.00845336914063	1.00860595703125	4.6234130859375E-07	4.66320187797464E-07	2181518.25	2.32501697610132E-05
1	219	88.1619227774125	0.998382568359375	0.99822998046875	4.5501708984375E-07	4.54211686928829E-07	2193829.75	2.32963611779269E-05
1	220	88.2626307771583	0.988311767578125	0.98846435546875	4.473876953125E-07	4.42226792074507E-07	2209413.5	2.33418013522169E-05
1	221	88.363338776904	0.978240966796875	0.97808837890625	4.40368652343751E-07	4.30719438782035E-07	2221067.25	2.3386503016809E-05
1	222	88.4640467766498	0.968170166015625	0.96771240234375	4.3304443359375E-07	4.19062445189411E-07	2234672.5	2.34304825426079E-05
1	223	88.5647547763955	0.958099365234375	0.958251953125	4.2694091796875E-07	4.09116978516977E-07	2244460.25	2.34737872233381E-05
1	224	88.6654627761412	0.948028564453125	0.94818115234375	4.1961669921875E-07	3.97872639723573E-07	2259636.5	2.35164152400102E-05
1	225	88.766170775887	0.937957763671875	0.9381103515625	4.132080078125E-07	3.876347136611E-07	2270310.25	2.35583502217196E-05
1	226	88.8668787756327	0.927886962890625	0.9283447265625	4.06494140624999E-07	3.7736668900834E-07	2283783.75	2.35996267292649E-05
1	227	88.9675867753784	0.917816162109375	0.91796875	4.00695800781251E-07	3.6782623169529E-07	2290936.75	2.36402720474871E-05
1	228	89.0682947751242	0.907745361328125	0.9075927734375	3.9337158203125E-07	3.57021207264552E-07	2307215	2.36802552535664E-05
1	229	89.1690027748699	0.897674560546875	0.8978271484375	3.86962890625001E-07	3.47425782365463E-07	2320189.25	2.37195490626618E-05
1	230	89.2697107746156	0.887603759765625	0.88836669921875	3.80859375000001E-07	3.38342800887403E-07	2332532	2.37582116824342E-05
1	231	89.3704187743614	0.877532958984375	0.87738037109375	3.741455078125E-07	3.28267901750223E-07	2345024.5	2.37962285609683E-05
1	232	89.4711267741071	0.867462158203125	0.86761474609375	3.67431640625E-07	3.18789091124927E-07	2361295.75	2.38335705944337E-05
1	233	89.5718347738529	0.857391357421875	0.85784912109375	3.61022949218751E-07	3.09703210632506E-07	2376162.5	2.38702505157562E-05
1	234	89.6725427735986	0.847320556640625	0.84747314453125	3.5430908203125E-07	3.00267430475287E-07	2391903.75	2.39062701439252E-05
1	235	89.7732507733443	0.837249755859375	0.83709716796875	3.48510742187499E-07	2.91737336510778E-07	2401926.5	2.39416604017606E-05
1	236	89.8739587730901	0.827178955078125	0.82733154296875	3.4210205078125E-07	2.83031823755664E-07	2418376.5	2.39764358411776E-05
1	237	89.9746667728358	0.817108154296875	0.8172607421875	3.3599853515625E-07	2.74598392024927E-07	2432334.25	2.40105800912715E-05
1	238	90.0753747725815	0.807037353515625	0.80780029296875	3.2958984375E-07	2.66242750512902E-07	2450926	2.40440949710319E-05
1	239	90.1760827723273	0.796966552734375	0.797119140625	3.24401855468751E-07	2.58586908330471E-07	2457196.75	2.40770277741831E-05
1	240	90.276790772073	0.786895751953125	0.787353515625	3.18603515625E-07	2.50853588568134E-07	2471264.5	2.41094039665768E-05
1	241	90.3774987718188	0.776824951171875	0.77728271484375	3.131103515625E-07	2.43375268382806E-07	2482456.25	2.4141214453266E-05
1	242	90.4782067715645	0.766754150390625	0.7666015625	3.0792236328125E-07	2.3605376497926E-07	2489593.75	2.41724865190918E-05
1	243	90.5789147713102	0.756683349609375	0.7568359375	3.02734374999999E-07	2.29120260542004E-07	2500000	2.42032347159693E-05
1	244	90.679622771056	0.746612548828125	0.746551513671875	2.978515625E-07	2.2236153540689E-07	2506455	2.42334772337927E-05
1	245	90.7803307708017	0.736541748046875	0.736419677734375	2.92053222656249E-07	2.15073740150729E-07	2521525.75	2.42631813307526E-05
1	246	90.8810387705474	0.726470947265625	0.726409912109375	2.87475585937499E-07	2.08825113645617E-07	2526857.75	2.42923615587642E-05
1	247	90.9817467702932	0.716400146484375	0.71636962890625	2.81982421875E-07	2.0200363337608E-07	2540476.25	2.43210361077217E-05
1	248	91.0824547700389	0.706329345703125	0.706298828125	2.76794433593749E-07	1.95499580968317E-07	2551709	2.43491740548052E-05
1	249	91.1831627697846	0.696258544921875	0.696197509765625	2.70996093750001E-07	1.88666803069282E-07	2569031.75	2.43767572101206E-05
1	250	91.2838707695304	0.686187744140625	0.68609619140625	2.655029296875E-07	1.82160547979038E-07	2584138	2.44037710217526E-05
1	251	91.3845787692761	0.676116943359375	0.676025390625	2.60009765624999E-07	1.75773195110196E-07	2600000	2.44302336795954E-05
1	252	91.4852867690219	0.666046142578125	0.66595458984375	2.5482177734375E-07	1.69699731600303E-07	2613413.25	2.44561579165747E-05
1	253	91.5859947687676	0.655975341796875	0.6558837890625	2.490234375E-07	1.6333042651695E-07	2633823.5	2.4481527361786E-05
1	254	91.6867027685133	0.645904541015625	0.6458740234375	2.4383544921875E-07	1.57486979901478E-07	2648811	2.4506345653208E-05
1	255	91.7874107682591	0.635833740234375	0.63580322265625	2.3834228515625E-07	1.515387850759E-07	2667605.75	2.45306255237665E-05
1	256	91.8881187680048	0.625762939453125	0.625732421875	2.3345947265625E-07	1.46083152685605E-07	2680261.5	2.45543815253768E-05
1	257	91.9888267677505	0.615692138671875	0.61566162109375	2.2857666015625E-07	1.40725873620795E-07	2693458	2.45776463998482E-05
1	258	92.0895347674963	0.605621337890625	0.605560302734375	2.239990234375E-07	1.35644910415067E-07	2703406	2.46004365180852E-05
1	259	92.190242767242	0.595550537109375	0.59552001953125	2.20336914062499E-07	1.31215045939825E-07	2702770	2.46228100877488E-05
1	260	92.2909507669877	0.585479736328125	0.58544921875	2.16064453125001E-07	1.26494768437624E-07	2709604.5	2.4644785298733E-05
1	261	92.3916587667335	0.575408935546875	0.575347900390625	2.1240234375E-07	1.22205236152695E-07	2708764.5	2.46663603320485E-05
1	262	92.4923667664792	0.565338134765625	0.5653076171875	2.08435058593751E-07	1.17829927148705E-07	2712152.25	2.46875515585998E-05
1	263	92.593074766225	0.555267333984375	0.555267333984375	2.05078124999999E-07	1.13873184659496E-07	2707589.25	2.47083735303022E-05
1	264	92.6937827659707	0.545196533203125	0.545135498046875	2.0172119140625E-07	1.09965384353927E-07	2702420.5	2.47288571699755E-05
1	265	92.7944907657164	0.535125732421875	0.535125732421875	1.9805908203125E-07	1.05986515563927E-07	2701849	2.47489879257046E-05
1	266	92.8951987654622	0.525054931640625	0.5250244140625	1.94702148437501E-07	1.02223374653931E-07	2696551.75	2.47687639784999E-05
1	267	92.9959067652079	0.514984130859375	0.51495361328125	1.91345214843749E-07	9.85339028147791E-08	2691228.25	2.47882035182556E-05
1	268	93.0966147649536	0.504913330078125	0.504852294921875	1.8798828125E-07	9.49063121424842E-08	2685552	2.48073047259822E-05
1	269	93.1973227646994	0.494842529296875	0.49481201171875	1.849365234375E-07	9.15088165243105E-08	2675577.5	2.48260821535951E-05
1	270	93.2980307644451	0.484771728515625	0.484771728515625	1.8157958984375E-07	8.80246489032288E-08	2669748	2.48445376200834E-05
1	271	93.3987387641909	0.474700927734375	0.4747314453125	1.788330078125E-07	8.48976497991316E-08	2654607.5	2.48626856773626E-05
1	272	93.4994467639366	0.464630126953125	0.46466064453125	1.7547607421875E-07	8.15368252915505E-08	2648000	2.4880528144422E-05
1	273	93.6001547636823	0.454559326171875	0.4544677734375	1.7242431640625E-07	7.83612890131735E-08	2635752.25	2.48980450123781E-05
1	274	93.7008627634281	0.444488525390625	0.444488525390625	1.690673828125E-07	7.5148506084588E-08	2629061.5	2.49152417381993E-05
1	275	93.8015707631738	0.434417724609375	0.434417724609375	1.666259765625E-07	7.23852764394906E-08	2607143	2.4932143787737E-05
1	276	93.9022787629195	0.424346923828125	0.42437744140625	1.6326904296875E-07	6.92876938046538E-08	2599252.5	2.49487566179596E-05
1	277	94.0029867626653	0.414276123046875	0.414337158203125	1.59912109375E-07	6.6257527464586E-08	2591030.5	2.49650292971637E-05
1	278	94.103694762411	0.404205322265625	0.4041748046875	1.56555175781251E-07	6.32756567142678E-08	2581676.5	2.49809654633282E-05
1	279	94.2044027621567	0.394134521484375	0.394195556640625	1.5289306640625E-07	6.02697696194809E-08	2578243.5	2.49965469265589E-05
1	280	94.3051107619025	0.384063720703125	0.38409423828125	1.4984130859375E-07	5.75531799995588E-08	2563340.25	2.50117900577607E-05
1	281	94.4058187616482	0.373992919921875	0.373992919921875	1.4617919921875E-07	5.46699823189556E-08	2558455.25	2.50266966759227E-05
1	282	94.506526761394	0.363922119140625	0.363922119140625	1.4312744140625E-07	5.20872411868822E-08	2542644	2.50412649620557E-05
1	283	94.6072347611397	0.353851318359375	0.353851318359375	1.4007568359375E-07	4.95659655541658E-08	2526143.75	2.50555240199901E-05
1	284	94.7079427608854	0.343780517578125	0.34381103515625	1.3763427734375E-07	4.73201815509583E-08	2498004.5	2.50695084105246E-05
1	285	94.8086507606312	0.333709716796875	0.333740234375	1.35192871093751E-07	4.51192967432235E-08	2468623.25	2.50832472374896E-05
1	286	94.9093587603769	0.323638916015625	0.32366943359375	1.3275146484375E-07	4.29675921509443E-08	2438161	2.50967386818957E-05
1	287	95.0100667601226	0.313568115234375	0.3135986328125	1.2939453125E-07	4.05779445600274E-08	2423585	2.51099390879972E-05
1	288	95.1107747598684	0.303497314453125	0.303466796875	1.263427734375E-07	3.83408362836235E-08	2401932.5	2.51228157139849E-05
1	289	95.2114827596141	0.293426513671875	0.29345703125	1.239013671875E-07	3.63597258967729E-08	2368473	2.51354158535833E-05
1	290	95.3121907593599	0.283355712890625	0.28338623046875	1.20849609375E-07	3.42471153658153E-08	2344949.5	2.51477413257817E-05
1	291	95.4128987591056	0.273284912109375	0.273223876953125	1.16882324218751E-07	3.1935041278075E-08	2337598	2.51597120950464E-05
1	292	95.5136067588513	0.263214111328125	0.263275146484375	1.13830566406251E-07	2.99687599181198E-08	2312868.75	2.51713281613775E-05
1	293	95.6143147585971	0.253143310546875	0.25323486328125	1.0955810546875E-07	2.77439315965466E-08	2311420.75	2.5182576791849E-05
1	294	95.7150227583428	0.243072509765625	0.2430419921875	1.06201171875001E-07	2.58113441731211E-08	2288505.75	2.51934416155564E-05
1	295	95.8157307580885	0.233001708984375	0.2330322265625	1.019287109375E-07	2.37526727175918E-08	2286227.75	2.52039226324996E-05
1	296	95.9164387578343	0.222930908203125	0.222930908203125	9.73510742187503E-08	2.17025615256716E-08	2289968.75	2.52139561780496E-05
1	297	96.01714675758	0.212860107421875	0.21282958984375	9.27734375000003E-08	1.97449310235243E-08	2294079	2.52235295192804E-05
1	298	96.1178547573257	0.202789306640625	0.20281982421875	8.78906250000006E-08	1.78259611516296E-08	2307638.75	2.5232628104277E-05
1	299	96.2185627570715	0.192718505859375	0.1927490234375	8.23974609375E-08	1.58820299134277E-08	2339259.5	2.52412028203253E-05
1	300	96.3192707568172	0.182647705078125	0.182647705078125	7.62939453125E-08	1.39349136674127E-08	2394000	2.52491918217856E-05
1	301	96.419978756563	0.172576904296875	0.172637939453125	6.98852539062503E-08	1.20648460111283E-08	2470305.75	2.52565532719018E-05
1	302	96.5206867563087	0.162506103515625	0.16253662109375	6.19506835937506E-08	1.00692538751446E-08	2623645.5	2.52631925832247E-05
1	303	96.6213947560544	0.152435302734375	0.152557373046875	5.18798828125E-08	7.91465826210924E-09	2940588.5	2.52689242188353E-05
1	304	96.7221027558002	0.142364501953125	0.142425537109375	4.02832031249994E-08	5.73735636777428E-09	3535606.25	2.52735644608038E-05
1	305	96.8228107555459	0.132293701171875	0.132293701171875	2.50244140624994E-08	3.31057226077291E-09	5286585.5	2.52768531936454E-05
1	306	96.9235187552916	0.122222900390625	0.122283935546875	6.103515625E-09	7.46361916714733E-10	20035000	2.52784211625112E-05
1	307	97.0242267550374	0.112152099609375	0.1121826171875	-1.89208984374994E-08	-2.12259587684116E-09	-5929032	2.5277775421273E-05
1	308	97.1249347547831	0.102081298828125	0.102142333984375	-5.21850585937497E-08	-5.33030375393651E-09	-1957310	2.52741938311374E-05
1	309	97.2256427545288	0.092010498046875	0.092071533203125	-9.67407226562494E-08	-8.90706619571802E-09	-951735.0625	2.5266695956816E-05
1	310	97.3263507542746	0.081939697265625	0.082000732421875	-1.5869140625E-07	-1.30128112729722E-08	-516730.78125	2.52538338827435E-05
1	311	97.4270587540203	0.071868896484375	0.071929931640625	-2.423095703125E-07	-1.74293113275326E-08	-296851.375	2.52336412813747E-05
1	312	97.5277667537661	0.061798095703125	0.06182861328125	-3.521728515625E-07	-2.17743583164065E-08	-175563.265625	2.52037061727606E-05
1	313	97.6284747535118	0.051727294921875	0.051727294921875	-4.9560546875E-07	-2.56363286155192E-08	-104371.9296875	2.51610181294382E-05
1	314	97.7291827532575	0.041656494140625	0.041754150390625	-6.72302246093751E-07	-2.80714083089606E-08	-62106.21875	2.51022083830321E-05
1	315	97.8298907530033	0.031585693359375	0.03165283203125	-8.81042480468749E-07	-2.78874878745228E-08	-35926.56640625	2.50239918386796E-05
1	316	97.930598752749	0.021514892578125	0.02161865234375	-1.1090087890625E-06	-2.39752750985645E-08	-19493.671875	2.49237855314277E-05
1	317	98.0313067524947	0.011444091796875	0.0115234375	-1.33758544921875E-06	-1.54135832985958E-08	-8615.103515625	2.48005890171044E-05
1	318	98.1320147522405	0.001373291015625	0.001446533203125	-1.54571533203125E-06	-2.23592855341792E-09	-935.834167480469	2.46554027398815E-05
1	319	98.2327227519862	-0.008697509765625	-0.0086029052734375	-1.710205078125E-06	1.47127323657514E-08	5030.33544921875	2.44914554059505E-05
1	320	98.333430751732	-0.018768310546875	-0.0186737060546875	-1.81884765625E-06	3.39646284430728E-08	10266.779296875	2.43137528741499E-05
1	321	98.4341387514777	-0.028839111328125	-0.0287322998046875	-1.8701171875E-06	5.3732765792347E-08	15363.904296875	2.41279994952492E-05
1	322	98.5348467512234	-0.038909912109375	-0.038763427734375	-1.87103271484375E-06	7.25276336766001E-08	20717.6640625	2.39396176766604E-05
1	323	98.6355547509692	-0.048980712890625	-0.0488555908203125	-1.8365478515625E-06	8.97256242637923E-08	26601.86328125	2.37529256992275E-05
1	324	98.7362627507149	-0.059051513671875	-0.058990478515625	-1.778564453125E-06	1.04918363774686E-07	33167.46875	2.35708903346676E-05
1	325	98.8369707504606	-0.069122314453125	-0.06915283203125	-1.71051025390625E-06	1.18286628492115E-07	40428.19140625	2.33952014241368E-05
1	326	98.9376787502064	-0.079193115234375	-0.07916259765625	-1.6400146484375E-06	1.29827810724237E-07	48269.4453125	2.32264883379685E-05
1	327	99.0383867499521	-0.089263916015625	-0.089202880859375	-1.572265625E-06	1.40250620006555E-07	56735.25	2.3064738343237E-05
1	328	99.1390947496978	-0.099334716796875	-0.0992431640625	-1.50970458984375E-06	1.49827855011608E-07	65736.8125	2.29095476242946E-05
1	329	99.2398027494436	-0.109405517578125	-0.109283447265625	-1.4532470703125E-06	1.58815851136751E-07	75199.5	2.27603522944264E-05
1	330	99.3405107491893	-0.119476318359375	-0.119415283203125	-1.4031982421875E-06	1.67563314334984E-07	85102.21875	2.26165175263304E-05
1	331	99.4412187489351	-0.129547119140625	-0.1295166015625	-1.35894775390625E-06	1.76006295760089E-07	95306.53125	2.24774339585565E-05
1	332	99.5419267486808	-0.139617919921875	-0.139495849609375	-1.32080078125E-06	1.84246218282169E-07	105614.609375	2.23424976866227E-05
1	333	99.6426347484265	-0.149688720703125	-0.14959716796875	-1.28753662109375E-06	1.92611835814205E-07	116188.671875	2.22111575567396E-05
1	334	99.7433427481723	-0.159759521484375	-0.15960693359375	-1.258544921875E-06	2.00872491973314E-07	126818.625	2.20829515455989E-05
1	335	99.844050747918	-0.169830322265625	-0.169647216796875	-1.23321533203125E-06	2.09211549417887E-07	137564.953125	2.19574812945211E-05
1	336	99.9447587476637	-0.179901123046875	-0.17974853515625	-1.21185302734375E-06	2.17828812765219E-07	148325.359375	2.18343629967421E-05
1	337	100.045466747409	-0.189971923828125	-0.189788818359375	-1.19354248046875E-06	2.26520995738611E-07	159013.046875	2.17132419493282E-05
1	338	100.146174747155	-0.200042724609375	-0.199951171875	-1.1785888671875E-06	2.35660223779632E-07	169653.03125	2.15937943721656E-05
1	339	100.246882746901	-0.189971923828125	-0.18975830078125	-1.0296630859375E-06	1.95387116264101E-07	184291.640625	2.14826013689162E-05
2	340	100.347590746647	-0.179901123046875	-0.179656982421875	-9.28955078125E-07	1.66893258324308E-07	193396.859375	2.1383975763456E-05
2	341	100.448298746392	-0.169830322265625	-0.169677734375	-8.4869384765625E-07	1.44004445701285E-07	199928.078125	2.12944651138969E-05
2	342	100.549006746138	-0.159759521484375	-0.15960693359375	-7.8125E-07	1.24692917324865E-07	204296.875	2.12123904930195E-05
2	343	100.649714745884	-0.149688720703125	-0.149566650390625	-7.220458984375E-07	1.07993976428133E-07	207142.875	2.11366932489909E-05
2	344	100.75042274563	-0.139617919921875	-0.139556884765625	-6.6802978515625E-07	9.3228152309166E-08	208908.1875	2.10666967177531E-05
2	345	100.851130745375	-0.129547119140625	-0.129486083984375	-6.182861328125E-07	8.0059443519076E-08	209427.453125	2.10019261430716E-05
2	346	100.951838745121	-0.119476318359375	-0.119354248046875	-5.706787109375E-07	6.81129250779122E-08	209144.390625	2.09420577448327E-05
2	347	101.052546744867	-0.109405517578125	-0.1092529296875	-5.230712890625E-07	5.71470692989351E-08	208868.15625	2.08869823836721E-05
2	348	101.153254744613	-0.099334716796875	-0.0992431640625	-4.73937988281251E-07	4.7035104699944E-08	209401.171875	2.08367782761343E-05
2	349	101.253962744358	-0.089263916015625	-0.08917236328125	-4.21142578125E-07	3.75542796859918E-08	211739.140625	2.07917073566932E-05
2	350	101.354670744104	-0.079193115234375	-0.07916259765625	-3.61328125E-07	2.86036723196048E-08	219087.84375	2.07523080462124E-05
2	351	101.45537874385	-0.069122314453125	-0.069091796875	-2.899169921875E-07	2.00308853948172E-08	238315.796875	2.07195153052453E-05
2	352	101.556086743596	-0.059051513671875	-0.058990478515625	-2.02026367187499E-07	1.19176313262415E-08	291993.96875	2.06947443075478E-05
2	353	101.656794743341	-0.048980712890625	-0.0488067626953125	-9.307861328125E-08	4.54286563922324E-09	524360.6875	2.06798831641208E-05
2	354	101.757502743087	-0.038909912109375	-0.038800048828125	4.48608398437494E-08	-1.74060288404831E-09	-864897.9375	2.06774566322565E-05
2	355	101.858210742833	-0.028839111328125	-0.0287200927734375	2.154541015625E-07	-6.18786133443905E-09	-133300.28125	2.06905642698985E-05
2	356	101.958918742578	-0.018768310546875	-0.0186767578125	4.17175292968749E-07	-7.79148123797313E-09	-44769.5703125	2.07224184123334E-05
2	357	102.059626742324	-0.008697509765625	-0.0085906982421875	6.4666748046875E-07	-5.55532508883516E-09	-13284.5693359375	2.07759876502678E-05
2	358	102.16033474207	0.001373291015625	0.00148925781250001	8.892822265625E-07	1.32437050215373E-09	1674.67395019531	2.08533292607171E-05
2	359	102.261042741816	0.011444091796875	0.01151123046875	1.12457275390625E-06	1.29452155661625E-08	10236.0927734375	2.0954734281986E-05
2	360	102.361750741561	0.021514892578125	0.021624755859375	1.33148193359375E-06	2.87929715625523E-08	16241.1181640625	2.10784073715331E-05
2	361	102.462458741307	0.031585693359375	0.0316680908203125	1.48895263671875E-06	4.71522838552119E-08	21268.701171875	2.12204267882043E-05
2	362	102.563166741053	0.041656494140625	0.04173583984375	1.58935546875E-06	6.63330794736794E-08	26259.6015625	2.13754319702275E-05
2	363	102.663874740799	0.051727294921875	0.051849365234375	1.63299560546875E-06	8.46697858492007E-08	31751.07421875	2.1537691281992E-05
2	364	102.764582740544	0.061798095703125	0.06182861328125	1.6314697265625E-06	1.00871510255729E-07	37897.49609375	2.17020697164116E-05
2	365	102.86529074029	0.071868896484375	0.071868896484375	1.59759521484375E-06	1.14817403584766E-07	44985.671875	2.18646655412158E-05
2	366	102.965998740036	0.081939697265625	0.081939697265625	1.5460205078125E-06	1.26680447465333E-07	53000.39453125	2.20229594560806E-05
2	367	103.066706739782	0.092010498046875	0.092010498046875	1.4862060546875E-06	1.36746550083444E-07	61909.65234375	2.21756436076248E-05
2	368	103.167414739527	0.102081298828125	0.10211181640625	1.424560546875E-06	1.45464468914724E-07	71679.5234375	2.23222123167943E-05
2	369	103.268122739273	0.112152099609375	0.112213134765625	1.36566162109375E-06	1.53245167666682E-07	82167.6015625	2.24627110583242E-05
2	370	103.368830739019	0.122222900390625	0.122283935546875	1.312255859375E-06	1.60467806153974E-07	93186.0546875	2.25975563807879E-05
2	371	103.469538738765	0.132293701171875	0.13232421875	1.26312255859375E-06	1.67141692486439E-07	104759.609375	2.27272357733455E-05
2	372	103.57024673851	0.142364501953125	0.142364501953125	1.21978759765625E-06	1.73654456148142E-07	116712.5390625	2.28522603720194E-05
2	373	103.670954738256	0.152435302734375	0.1524658203125	1.1810302734375E-06	1.80066749067009E-07	129095.609375	2.29731522267684E-05
2	374	103.771662738002	0.162506103515625	0.162567138671875	1.14776611328125E-06	1.86589048212227E-07	141637.875	2.30904151976574E-05
2	375	103.872370737747	0.172576904296875	0.172637939453125	1.1181640625E-06	1.93037536178053E-07	154394.109375	2.32045149459736E-05
2	376	103.973078737493	0.182647705078125	0.18267822265625	1.0919189453125E-06	1.99469795347795E-07	167300.171875	2.33158007176826E-05
2	377	104.073786737239	0.192718505859375	0.192779541015625	1.0687255859375E-06	2.06028417437665E-07	180382.65625	2.34245981118875E-05
2	378	104.174494736985	0.202789306640625	0.20281982421875	1.0479736328125E-06	2.12549821299035E-07	193535.25	2.35311817959882E-05
2	379	104.27520273673	0.212860107421875	0.212860107421875	1.0302734375E-06	2.19304112647478E-07	206605.453125	2.36358300753636E-05
2	380	104.375910736476	0.222930908203125	0.22296142578125	1.01348876953125E-06	2.2596888982207E-07	219993.984375	2.37387412198586E-05
2	381	104.476618736222	0.233001708984375	0.2330322265625	9.991455078125E-07	2.32833102131735E-07	233231.515625	2.38400862144772E-05
2	382	104.577326735968	0.243072509765625	0.243072509765625	9.86328124999999E-07	2.39749255115385E-07	246441.828125	2.39400633290643E-05
2	383	104.678034735713	0.253143310546875	0.253143310546875	9.74426269531251E-07	2.46669486614337E-07	259787.03125	2.40387944359099E-05
2	384	104.778742735459	0.263214111328125	0.263214111328125	9.6405029296875E-07	2.53751636591915E-07	273029.4375	2.4136405045283E-05
2	385	104.879450735205	0.273284912109375	0.273284912109375	9.552001953125E-07	2.61041805060813E-07	286102.21875	2.4233046133304E-05
2	386	104.980158734951	0.283355712890625	0.2833251953125	9.46960449218751E-07	2.68297753791558E-07	299194.34375	2.43288268393371E-05
2	387	105.080866734696	0.293426513671875	0.29339599609375	9.3902587890625E-07	2.75506437219519E-07	312447.1875	2.44237944571069E-05
2	388	105.181574734442	0.303497314453125	0.303466796875	9.326171875E-07	2.83018351865394E-07	325392.65625	2.45180399360834E-05
2	389	105.282282734188	0.313568115234375	0.31353759765625	9.26513671875E-07	2.90496842580978E-07	338405.8125	2.46116542257369E-05
2	390	105.382990733934	0.323638916015625	0.3236083984375	9.21630859375E-07	2.98247471164359E-07	351125.84375	2.47047155426117E-05
2	391	105.483698733679	0.333709716796875	0.333709716796875	9.173583984375E-07	3.06131397564968E-07	363772.46875	2.47973166551674E-05
2	392	105.584406733425	0.343780517578125	0.34375	9.1400146484375E-07	3.14187985850367E-07	376093.5	2.48895321419695E-05
2	393	105.685114733171	0.353851318359375	0.3538818359375	9.112548828125E-07	3.22476552128137E-07	388345.625	2.49814420385519E-05
2	394	105.785822732916	0.363922119140625	0.3638916015625	9.08813476562501E-07	3.3070958238568E-07	400402.96875	2.50730881816708E-05
2	395	105.886530732662	0.373992919921875	0.37396240234375	9.0789794921875E-07	3.39519687031498E-07	411899.1875	2.51645669777645E-05
2	396	105.987238732408	0.384063720703125	0.384063720703125	9.0667724609375E-07	3.48221817603189E-07	423594.78125	2.52559384534834E-05
2	397	106.087946732154	0.394134521484375	0.3941650390625	9.05761718750001E-07	3.57019587227114E-07	435175.21875	2.53472026088275E-05
2	398	106.188654731899	0.404205322265625	0.404205322265625	9.05761718750001E-07	3.66113681593561E-07	446260.125	2.54384194704471E-05
2	399	106.289362731645	0.414276123046875	0.414215087890625	9.0606689453125E-07	3.75306569821987E-07	457157.3125	2.55296527029714E-05
2	400	106.390070731391	0.424346923828125	0.424346923828125	9.063720703125E-07	3.84616186011044E-07	468181.8125	2.56209168583155E-05
2	401	106.490778731137	0.434417724609375	0.4344482421875	9.0667724609375E-07	3.93904315387772E-07	479165.28125	2.571221011749E-05
2	402	106.591486730882	0.444488525390625	0.444549560546875	9.08203125E-07	4.0374129639531E-07	489482.53125	2.58035961451242E-05
2	403	106.692194730628	0.454559326171875	0.45452880859375	9.08813476562501E-07	4.13081892247646E-07	500134.34375	2.58950913121225E-05
2	404	106.792902730374	0.464630126953125	0.464599609375	9.0972900390625E-07	4.22659724108598E-07	510701.125	2.59866610576864E-05
2	405	106.89361073012	0.474700927734375	0.4747314453125	9.1094970703125E-07	4.32456459975583E-07	521139.0625	2.60783399426145E-05
2	406	106.994318729865	0.484771728515625	0.484710693359375	9.124755859375E-07	4.42286676616277E-07	531204	2.61701570707373E-05
2	407	107.095026729611	0.494842529296875	0.494842529296875	9.14611816406249E-07	4.52588807320353E-07	541041.0625	2.62621579167899E-05
2	408	107.195734729357	0.504913330078125	0.50494384765625	9.1705322265625E-07	4.63060359834344E-07	550615.6875	2.63543897744967E-05
2	409	107.296442729103	0.514984130859375	0.515045166015625	9.19189453124999E-07	4.73424051961047E-07	560325.375	2.64468526438577E-05
2	410	107.397150728848	0.525054931640625	0.525054931640625	9.22241210937499E-07	4.842273142458E-07	569324.9375	2.65395756287035E-05
2	411	107.497858728594	0.535125732421875	0.535064697265625	9.2498779296875E-07	4.94928315220022E-07	578455.9375	2.66325914708432E-05
2	412	107.59856672834	0.545196533203125	0.545074462890625	9.28344726562499E-07	5.06016988310876E-07	587146.625	2.67259129032027E-05
2	413	107.699274728085	0.555267333984375	0.55517578125	9.320068359375E-07	5.17427622526156E-07	595677.8125	2.68195890384959E-05
2	414	107.799982727831	0.565338134765625	0.5653076171875	9.35974121093749E-07	5.29113265201886E-07	603977.875	2.69136489805533E-05
2	415	107.900690727577	0.575408935546875	0.575347900390625	9.3963623046875E-07	5.40617747901706E-07	612309.1875	2.70080945483642E-05
2	416	108.001398727323	0.585479736328125	0.58551025390625	9.4451904296875E-07	5.53025586214062E-07	619903.125	2.71029693976743E-05
2	417	108.102106727068	0.595550537109375	0.595458984375	9.48486328125001E-07	5.64784727430379E-07	627799.25	2.71982898993883E-05
2	418	108.202814726814	0.605621337890625	0.6055908203125	9.5367431640625E-07	5.77536411583424E-07	635008	2.72940706054214E-05
2	419	108.30352272656	0.615692138671875	0.615631103515625	9.5855712890625E-07	5.90117508636467E-07	642247.75	2.73903588094981E-05
2	420	108.404230726306	0.625762939453125	0.625732421875	9.6405029296875E-07	6.0323753814373E-07	649066.1875	2.74871708825231E-05
2	421	108.504938726051	0.635833740234375	0.635772705078125	9.6954345703125E-07	6.16409238318738E-07	655744.4375	2.75845341093373E-05
2	422	108.605646725797	0.645904541015625	0.6458740234375	9.75952148437501E-07	6.30342128715711E-07	661788.625	2.76824976026546E-05
2	423	108.706354725543	0.655975341796875	0.65594482421875	9.8114013671875E-07	6.43573798697616E-07	668553.625	2.77810449915705E-05
2	424	108.807062725289	0.666046142578125	0.665985107421875	9.8724365234375E-07	6.57489579225512E-07	674590.4375	2.78801617241697E-05
2	425	108.907770725034	0.676116943359375	0.67608642578125	9.918212890625E-07	6.70556858040072E-07	681661.5625	2.7979815058643E-05
2	426	109.00847872478	0.686187744140625	0.68609619140625	9.967041015625E-07	6.83834912251768E-07	688365	2.807994496834E-05
2	427	109.109186724526	0.696258544921875	0.6961669921875	1.00128173828125E-06	6.97059249432641E-07	695275.875	2.81805514532607E-05
2	428	109.209894724272	0.706329345703125	0.70623779296875	1.00494384765625E-06	7.09729306436202E-07	702763.5	2.82815726677654E-05
2	429	109.310602724017	0.716400146484375	0.71630859375	1.0089111328125E-06	7.22691709142964E-07	709981.875	2.83829795080237E-05
2	430	109.411310723763	0.726470947265625	0.726348876953125	1.01287841796875E-06	7.35703110876784E-07	717113.5625	2.84847847069614E-05
2	431	109.512018723509	0.736541748046875	0.73638916015625	1.016845703125E-06	7.48794093397009E-07	724189.6875	2.85869882645784E-05
2	432	109.612726723254	0.746612548828125	0.74652099609375	1.02020263671875E-06	7.61602677812334E-07	731738	2.86895628960337E-05
2	433	109.713434723	0.756683349609375	0.7568359375	1.02294921875E-06	7.74204693243519E-07	739856.8125	2.87924431177089E-05
2	434	109.814142722746	0.766754150390625	0.76690673828125	1.02691650390625E-06	7.87549197411863E-07	746805.375	2.88956616714131E-05
2	435	109.914850722492	0.776824951171875	0.7769775390625	1.02996826171875E-06	8.00262171196664E-07	754370.4375	2.8999234928051E-05
2	436	110.015558722237	0.786895751953125	0.78704833984375	1.03302001953125E-06	8.13036649560672E-07	761890.6875	2.91031137749087E-05
2	437	110.116266721983	0.796966552734375	0.79681396484375	1.03607177734375E-06	8.25556469408184E-07	769072.125	2.9207301849965E-05
2	438	110.216974721729	0.807037353515625	0.80718994140625	1.03973388671875E-06	8.39262725094159E-07	776342.8125	2.9311826438061E-05
2	439	110.317682721475	0.817108154296875	0.81695556640625	1.0430908203125E-06	8.52158848374529E-07	783206.5625	2.94167057290906E-05
2	440	110.41839072122	0.827178955078125	0.82763671875	1.04705810546875E-06	8.66583661718323E-07	790440.125	2.95219524559798E-05
2	441	110.519098720966	0.837249755859375	0.83770751953125	1.051025390625E-06	8.80451864304632E-07	797038.3125	2.96275993605377E-05
2	442	110.619806720712	0.847320556640625	0.8477783203125	1.0546875E-06	8.94141180651786E-07	803819.5	2.97336300718598E-05
2	443	110.720514720458	0.857391357421875	0.85784912109375	1.0595703125E-06	9.08951449218875E-07	809619.8125	2.98400918836705E-05
2	444	110.821222720203	0.867462158203125	0.8673095703125	1.06353759765625E-06	9.22416290904948E-07	815495.0625	2.99469993478851E-05
2	445	110.921930719949	0.877532958984375	0.87738037109375	1.06781005859375E-06	9.36875551360572E-07	821663.375	3.00543215416837E-05
2	446	111.022638719695	0.887603759765625	0.88775634765625	1.07177734375E-06	9.51477090893604E-07	828303	3.0162056646077E-05
2	447	111.123346719441	0.897674560546875	0.89752197265625	1.07635498046875E-06	9.66052198236866E-07	833853.1875	3.02702246699482E-05
2	448	111.224054719186	0.907745361328125	0.908203125	1.08123779296875E-06	9.8198347586731E-07	839966.125	3.03788674500538E-05
2	449	111.324762718932	0.917816162109375	0.91766357421875	1.08612060546875E-06	9.96693302113272E-07	844900.25	3.04880031762877E-05
2	450	111.425470718678	0.927886962890625	0.927734375	1.09130859375E-06	1.01244449979276E-06	850111.875	3.05976464005653E-05
2	451	111.526178718423	0.937957763671875	0.9381103515625	1.09619140625E-06	1.02834849258215E-06	855790.6875	3.07077934849076E-05
2	452	111.626886718169	0.948028564453125	0.948486328125	1.10137939453125E-06	1.04464322703279E-06	861180.4375	3.08184498862829E-05
2	453	111.727594717915	0.958099365234375	0.958251953125	1.10687255859375E-06	1.06066283933615E-06	865729.25	3.09296447085217E-05
2	454	111.828302717661	0.968170166015625	0.968017578125	1.11175537109375E-06	1.07619871414499E-06	870711	3.10413633997086E-05
2	455	111.929010717406	0.978240966796875	0.97869873046875	1.116943359375E-06	1.09315101326501E-06	876229.5625	3.11535877699498E-05
2	456	112.029718717152	0.988311767578125	0.98846435546875	1.121826171875E-06	1.10888515791885E-06	881120.8125	3.12663178192452E-05
2	457	112.130426716898	0.998382568359375	0.99761962890625	1.12701416015625E-06	1.12433144749957E-06	885188.25	3.13795535475947E-05
2	458	112.231134716644	1.00845336914063	1.00830078125	1.13128662109375E-06	1.14067711365351E-06	891286.8125	3.14932694891468E-05
2	459	112.331842716389	1.01852416992188	1.01898193359375	1.13616943359375E-06	1.15773616471415E-06	896857.375	3.16074438160285E-05
2	460	112.432550716135	1.02859497070313	1.0284423828125	1.14105224609375E-06	1.17350646178238E-06	901310.5625	3.17221129080281E-05
2	461	112.533258715881	1.03866577148438	1.03851318359375	1.1456298828125E-06	1.18975174245861E-06	906499.75	3.18372549372725E-05
2	462	112.633966715627	1.04873657226563	1.04827880859375	1.14990234375E-06	1.205418243444E-06	911624.1875	3.19528444379102E-05
2	463	112.734674715372	1.05880737304688	1.0589599609375	1.15447998046875E-06	1.22254800771771E-06	917261.4375	3.20688814099412E-05
2	464	112.835382715118	1.06887817382813	1.06903076171875	1.158447265625E-06	1.23841573440586E-06	922813.5	3.21853440254927E-05
2	465	112.936090714864	1.07894897460938	1.0784912109375	1.162109375E-06	1.25332473999151E-06	928046.25	3.23021959047765E-05
2	466	113.03679871461	1.08901977539063	1.0888671875	1.16668701171875E-06	1.27036719277385E-06	933298.5	3.24194588756654E-05
2	467	113.137506714355	1.09909057617188	1.0992431640625	1.170654296875E-06	1.28683370803628E-06	938998.9375	3.25371547660325E-05
2	468	113.238214714101	1.10916137695313	1.10870361328125	1.1749267578125E-06	1.30264550080028E-06	943636.375	3.26552617480047E-05
2	469	113.338922713847	1.11923217773438	1.11907958984375	1.18011474609375E-06	1.32064235458529E-06	948280.3125	3.27738489431795E-05
2	470	113.439630713592	1.12930297851563	1.12945556640625	1.18438720703125E-06	1.3377127743297E-06	953620.1875	3.28929090755992E-05
2	471	113.540338713338	1.13937377929688	1.13922119140625	1.18927001953125E-06	1.35484151542187E-06	957916.4375	3.30124348693062E-05
2	472	113.641046713084	1.14944458007813	1.1492919921875	1.19415283203125E-06	1.37243023345945E-06	962432.9375	3.31324481521733E-05
2	473	113.74175471283	1.15951538085938	1.15966796875	1.1993408203125E-06	1.39083704198129E-06	966921.1875	3.32529707520735E-05
2	474	113.842462712575	1.16958618164063	1.16912841796875	1.204833984375E-06	1.40860572628299E-06	970364.75	3.3374031772837E-05
2	475	113.943170712321	1.17965698242188	1.1798095703125	1.2109375E-06	1.42867565955385E-06	974294.375	3.34956748702098E-05
2	476	114.043878712067	1.18972778320313	1.18927001953125	1.21673583984375E-06	1.44702732995938E-06	977426.6875	3.36179182340857E-05
2	477	114.144586711813	1.19979858398438	1.19964599609375	1.2237548828125E-06	1.4680726962979E-06	980299.25	3.37408055202104E-05
2	478	114.245294711558	1.20986938476563	1.209716796875	1.23046875E-06	1.4885185919411E-06	983135	3.38643840223085E-05
2	479	114.346002711304	1.21994018554688	1.21978759765625	1.23779296875E-06	1.50984453739511E-06	985453.6875	3.3988671930274E-05
2	480	114.44671071105	1.23001098632813	1.22955322265625	1.2457275390625E-06	1.5316882127081E-06	987016.1875	3.41137274517678E-05
2	481	114.547418710796	1.24008178710938	1.240234375	1.253662109375E-06	1.55483473918139E-06	989289.25	3.42395833285991E-05
2	482	114.648126710541	1.25015258789063	1.25	1.26251220703125E-06	1.57814031354064E-06	990089.4375	3.43662795785349E-05
2	483	114.748834710287	1.26022338867188	1.26007080078125	1.2725830078125E-06	1.60354466061108E-06	990167.9375	3.44939326168969E-05
2	484	114.849542710033	1.27029418945313	1.27044677734375	1.28265380859375E-06	1.62954336246912E-06	990483	3.46226006513461E-05
2	485	114.950250709779	1.28036499023438	1.280517578125	1.292724609375E-06	1.65535664109484E-06	990557.125	3.47522800439037E-05
2	486	115.050958709524	1.29043579101563	1.2908935546875	1.304931640625E-06	1.68452777415951E-06	989242.3125	3.48830835719127E-05
2	487	115.15166670927	1.30050659179688	1.30035400390625	1.31744384765625E-06	1.71314331964822E-06	987028.0625	3.50151312886737E-05
2	488	115.252374709016	1.31057739257813	1.3104248046875	1.32965087890625E-06	1.74240756223298E-06	985540.5	3.51484231941868E-05
2	489	115.353082708761	1.32064819335938	1.32049560546875	1.3433837890625E-06	1.77393224021216E-06	982962.375	3.52830211340915E-05
2	490	115.453790708507	1.33071899414063	1.33056640625	1.35772705078125E-06	1.80654592440987E-06	979995.5625	3.54190306097735E-05
2	491	115.554498708253	1.34078979492188	1.3409423828125	1.3726806640625E-06	1.84068574071716E-06	976878.625	3.55565171048511E-05
2	492	115.655206707999	1.35086059570313	1.3507080078125	1.3873291015625E-06	1.87387649930315E-06	973603.125	3.56954951712396E-05
2	493	115.755914707744	1.36093139648438	1.3604736328125	1.40350341796875E-06	1.90942932931648E-06	969341.1875	3.58360266545787E-05
2	494	115.85662270749	1.37100219726563	1.370849609375	1.41845703125E-06	1.94449125956453E-06	966437.1875	3.59781224688049E-05
2	495	115.957330707236	1.38107299804688	1.3812255859375	1.4337158203125E-06	1.98028487830015E-06	963388.75	3.61217425961513E-05
2	496	116.058038706982	1.39114379882813	1.3909912109375	1.4483642578125E-06	2.01466173166409E-06	960387.75	3.6266865208745E-05
2	497	116.158746706727	1.40121459960938	1.40106201171875	1.4617919921875E-06	2.0480611055973E-06	958455.125	3.64134029950947E-05
2	498	116.259454706473	1.41128540039063	1.4111328125	1.47552490234375E-06	2.0821614725719E-06	956359.875	3.65613086614758E-05
2	499	116.360162706219	1.42135620117188	1.42120361328125	1.48773193359375E-06	2.11436986319313E-06	955282.0625	3.67105203622486E-05
2	500	116.460870705965	1.43142700195313	1.4312744140625	1.49871826171875E-06	2.14507713280909E-06	954999	3.68608998542186E-05
2	501	116.56157870571	1.44149780273438	1.44134521484375	1.510009765625E-06	2.17644537769957E-06	954527.125	3.70124034816399E-05
2	502	116.662286705456	1.45156860351563	1.451416015625	1.5216064453125E-06	2.20848392018524E-06	953870.875	3.71650567103643E-05
2	503	116.762994705202	1.46163940429688	1.46148681640625	1.53289794921875E-06	2.24031009565806E-06	953414.3125	3.73188631783705E-05
2	504	116.863702704948	1.47171020507813	1.47186279296875	1.5447998046875E-06	2.27373311645351E-06	952785.5	3.74738374375738E-05
2	505	116.964410704693	1.48178100585938	1.48162841796875	1.55792236328125E-06	2.30826208280632E-06	951028.375	3.76300704374444E-05
2	506	117.065118704439	1.49185180664063	1.49139404296875	1.57196044921875E-06	2.34441245083872E-06	948747.8125	3.77876749553252E-05
2	507	117.165826704185	1.50192260742188	1.5020751953125	1.5863037109375E-06	2.38274742514477E-06	946902.625	3.79467055608984E-05
2	508	117.26653470393	1.49185180664063	1.49169921875	1.4410400390625E-06	2.14959823097161E-06	1035154.625	3.80991441488732E-05
2	509	117.367242703676	1.48178100585938	1.48162841796875	1.3421630859375E-06	1.98858697331161E-06	1103910.875	3.82392900064588E-05
2	510	117.467950703422	1.47171020507813	1.4715576171875	1.2652587890625E-06	1.86190118256491E-06	1163048.75	3.83705846616067E-05
2	511	117.568658703168	1.46163940429688	1.4617919921875	1.20269775390625E-06	1.75809384472814E-06	1215427.625	3.84948543796781E-05
2	512	117.669366702913	1.45156860351563	1.45172119140625	1.14959716796875E-06	1.66889446973073E-06	1262808.625	3.86133033316582E-05
2	513	117.770074702659	1.44149780273438	1.441650390625	1.10321044921875E-06	1.59044361680571E-06	1306777.375	3.87267391488422E-05
2	514	117.870782702405	1.43142700195313	1.43157958984375	1.0626220703125E-06	1.52122800045618E-06	1347214.375	3.88357984775212E-05
2	515	117.971490702151	1.42135620117188	1.4215087890625	1.02630615234375E-06	1.45890317071462E-06	1385072.875	3.89409833587706E-05
2	516	118.072198701896	1.41128540039063	1.4111328125	9.930419921875E-07	1.40131419357203E-06	1421020.25	3.90426648664288E-05
2	517	118.172906701642	1.40121459960938	1.40106201171875	9.63439941406249E-07	1.34983906718844E-06	1454228.75	3.91411813325249E-05
2	518	118.273614701388	1.39114379882813	1.3909912109375	9.356689453125E-07	1.30150726818101E-06	1486627.5	3.92368092434481E-05
2	519	118.374322701134	1.38107299804688	1.38092041015625	9.1064453125E-07	1.25752762869524E-06	1516420.875	3.93297814298421E-05
2	520	118.475030700879	1.37100219726563	1.37115478515625	8.868408203125E-07	1.21599600788613E-06	1546111.625	3.94202907045837E-05
2	521	118.575738700625	1.36093139648438	1.3604736328125	8.642578125E-07	1.17579998004658E-06	1574152.625	3.95084643969312E-05
2	522	118.676446700371	1.35086059570313	1.35040283203125	8.44421386718749E-07	1.14030899567297E-06	1599204.875	3.9594502595719E-05
2	523	118.777154700117	1.34078979492188	1.34033203125	8.24890136718751E-07	1.10562666577607E-06	1624861.375	3.96785617340356E-05
2	524	118.877862699862	1.33071899414063	1.33087158203125	8.06274414062499E-07	1.07304765606386E-06	1650643.5	3.97606963815633E-05
2	525	118.978570699608	1.32064819335938	1.32080078125	7.891845703125E-07	1.04235550679732E-06	1673627.375	3.98410338675603E-05
2	526	119.079278699354	1.31057739257813	1.3104248046875	7.73010253906251E-07	1.01297177934612E-06	1695223.125	3.99196978833061E-05
2	527	119.179986699099	1.30050659179688	1.30035400390625	7.574462890625E-07	9.84948314908252E-07	1716760.625	3.99967611883767E-05
2	528	119.280694698845	1.29043579101563	1.29058837890625	7.421875E-07	9.57858560468594E-07	1738898.125	4.00722747144755E-05
2	529	119.381402698591	1.28036499023438	1.28021240234375	7.281494140625E-07	9.32185912461136E-07	1758172.625	4.01463112211786E-05
2	530	119.482110698337	1.27029418945313	1.27044677734375	7.14111328125E-07	9.07240405467746E-07	1779059.875	4.02189361921046E-05
2	531	119.582818698082	1.26022338867188	1.259765625	7.00988769531249E-07	8.83081554547971E-07	1797126.625	4.02901896450203E-05
2	532	119.683526697828	1.25015258789063	1.25030517578125	6.884765625E-07	8.60805755564797E-07	1816046.25	4.03601552534383E-05
2	533	119.784234697574	1.24008178710938	1.24053955078125	6.7596435546875E-07	8.38560481497552E-07	1835214.5	4.0428862121189E-05
2	534	119.88494269732	1.23001098632813	1.2298583984375	6.64672851562501E-07	8.17453440049576E-07	1850321.5	4.04963684559334E-05
2	535	119.985650697065	1.21994018554688	1.21978759765625	6.5338134765625E-07	7.96986455497972E-07	1866884.625	4.05627361033112E-05
2	536	120.086358696811	1.20986938476563	1.209716796875	6.41479492187499E-07	7.76008505454229E-07	1885823.125	4.06279395974707E-05
2	537	120.187066696557	1.19979858398438	1.199951171875	6.30798339843749E-07	7.56927136080776E-07	1902274	4.06920007662848E-05
2	538	120.287774696303	1.18972778320313	1.1895751953125	6.20422363281251E-07	7.3803903433145E-07	1917363.625	4.07550069212448E-05
2	539	120.388482696048	1.17965698242188	1.18011474609375	6.1065673828125E-07	7.20645005003462E-07	1932533.75	4.08169944421388E-05
2	540	120.489190695794	1.16958618164063	1.16943359375	6.00280761718749E-07	7.01988483342575E-07	1948144.375	4.08779706049245E-05
2	541	120.58989869554	1.15951538085938	1.1602783203125	5.9112548828125E-07	6.85870077177242E-07	1962829.25	4.09379645134322E-05
2	542	120.690606695286	1.14944458007813	1.1492919921875	5.8135986328125E-07	6.68152267735422E-07	1976902.875	4.09970016335137E-05
2	543	120.791314695031	1.13937377929688	1.13922119140625	5.71289062499999E-07	6.50824574677245E-07	1994124	4.10550419474021E-05
2	544	120.892022694777	1.12930297851563	1.12945556640625	5.6182861328125E-07	6.34560421985952E-07	2010320.625	4.11121000070125E-05
2	545	120.992730694523	1.11923217773438	1.119384765625	5.5267333984375E-07	6.18654098616389E-07	2025400.375	4.11682194680907E-05
2	546	121.093438694268	1.10916137695313	1.10931396484375	5.4351806640625E-07	6.0293217529761E-07	2040988.25	4.12234185205307E-05
2	547	121.194146694014	1.09909057617188	1.0992431640625	5.34667968749999E-07	5.87730085044313E-07	2055936.125	4.12777080782689E-05
2	548	121.29485469376	1.08901977539063	1.08856201171875	5.2520751953125E-07	5.71720931930031E-07	2072632.25	4.1331077227369E-05
2	549	121.395562693506	1.07894897460938	1.0791015625	5.1605224609375E-07	5.5687280564598E-07	2091070.375	4.13835077779368E-05
2	550	121.496270693251	1.06887817382813	1.0693359375	5.06591796875E-07	5.4171681540538E-07	2110843.5	4.14350033679511E-05
2	551	121.596978692997	1.05880737304688	1.0589599609375	4.9713134765625E-07	5.26442192949617E-07	2130141.25	4.14855458075181E-05
2	552	121.697686692743	1.04873657226563	1.048583984375	4.8797607421875E-07	5.11683879267366E-07	2148843	4.15351496485528E-05
2	553	121.798394692489	1.03866577148438	1.038818359375	4.78210449218749E-07	4.96773793656757E-07	2172303.75	4.158380033914E-05
2	554	121.899102692234	1.02859497070313	1.029052734375	4.6844482421875E-07	4.82054417716427E-07	2196742.75	4.16314687754493E-05
2	555	121.99981069198	1.01852416992188	1.0186767578125	4.595947265625E-07	4.68178427581734E-07	2216467.5	4.16781986132264E-05
2	556	122.100518691726	1.00845336914063	1.00830078125	4.498291015625E-07	4.53563018254499E-07	2241519.75	4.17239934904501E-05
2	557	122.201226691472	0.998382568359375	0.99822998046875	4.4097900390625E-07	4.40198448359297E-07	2263667.75	4.17688461311627E-05
2	558	122.301934691217	0.988311767578125	0.9881591796875	4.3182373046875E-07	4.26710556666876E-07	2288339.25	4.18127965531312E-05
2	559	122.402642690963	0.978240966796875	0.97869873046875	4.23583984375001E-07	4.14561100114952E-07	2310518.75	4.18558702222072E-05
2	560	122.503350690709	0.968170166015625	0.96832275390625	4.1534423828125E-07	4.02187282588784E-07	2331374	4.18981144321151E-05
2	561	122.604058690455	0.958099365234375	0.958251953125	4.0740966796875E-07	3.90401112326799E-07	2352060	4.19395437347703E-05
2	562	122.7047666902	0.948028564453125	0.948486328125	3.99169921875001E-07	3.78607211359849E-07	2376146.75	4.19801581301726E-05
2	563	122.805474689946	0.937957763671875	0.93780517578125	3.91540527343751E-07	3.67188704331056E-07	2395167.75	4.20199721702375E-05
2	564	122.906182689692	0.927886962890625	0.92803955078125	3.83911132812501E-07	3.56284715508082E-07	2417329	4.2059018596774E-05
2	565	123.006890689437	0.917816162109375	0.91796875	3.7689208984375E-07	3.45975138316135E-07	2435627.75	4.20973301515914E-05
2	566	123.107598689183	0.907745361328125	0.9075927734375	3.6956787109375E-07	3.35417126962056E-07	2455821.75	4.21349177486263E-05
2	567	123.208306688929	0.897674560546875	0.89752197265625	3.619384765625E-07	3.24847746924206E-07	2479764	4.21717522840481E-05
2	568	123.309014688675	0.887603759765625	0.887451171875	3.558349609375E-07	3.15786138571639E-07	2493996.75	4.22078919655178E-05
2	569	123.40972268842	0.877532958984375	0.877685546875	3.4912109375E-07	3.06418513673634E-07	2513986	4.22433913627174E-05
2	570	123.510430688166	0.867462158203125	0.8673095703125	3.4210205078125E-07	2.96708378755284E-07	2535236.25	4.22781959059648E-05
2	571	123.611138687912	0.857391357421875	0.8575439453125	3.36303710937499E-07	2.88395227698857E-07	2549909.25	4.23123565269634E-05
2	572	123.711846687658	0.847320556640625	0.84747314453125	3.2989501953125E-07	2.79577164974398E-07	2568917.75	4.23459023295436E-05
2	573	123.812554687403	0.837249755859375	0.83740234375	3.2318115234375E-07	2.70632654064684E-07	2591123.75	4.23787860199809E-05
2	574	123.913262687149	0.827178955078125	0.8270263671875	3.16467285156249E-07	2.61726768258086E-07	2613307.75	4.24109966843389E-05
2	575	124.013970686895	0.817108154296875	0.81695556640625	3.094482421875E-07	2.52805449463267E-07	2640039.5	4.24425124947447E-05
2	576	124.114678686641	0.807037353515625	0.806884765625	3.02734374999999E-07	2.4427174594166E-07	2665322.5	4.2473340727156E-05
2	577	124.215386686386	0.796966552734375	0.79681396484375	2.9571533203125E-07	2.35630096767636E-07	2694530.5	4.25034741056152E-05
2	578	124.316094686132	0.786895751953125	0.787353515625	2.8839111328125E-07	2.27065754643263E-07	2730158.75	4.25328871642705E-05
2	579	124.416802685878	0.776824951171875	0.77667236328125	2.8106689453125E-07	2.18296889897829E-07	2763300.75	4.2561561713228E-05
2	580	124.517510685624	0.766754150390625	0.76690673828125	2.74047851562501E-07	2.10169133652016E-07	2798441.25	4.25895123044029E-05
2	581	124.618218685369	0.756683349609375	0.75653076171875	2.667236328125E-07	2.01784615683209E-07	2836384.5	4.2616742575774E-05
2	582	124.718926685115	0.746612548828125	0.74652099609375	2.5909423828125E-07	1.93419282368268E-07	2881272	4.2643219785532E-05
2	583	124.819634684861	0.736541748046875	0.73638916015625	2.520751953125E-07	1.85625438575698E-07	2921307.75	4.26689584855922E-05
2	584	124.920342684606	0.726470947265625	0.726348876953125	2.44750976562499E-07	1.77774595044866E-07	2967706	4.26939768658485E-05
2	585	125.021050684352	0.716400146484375	0.71630859375	2.3773193359375E-07	1.70289425227566E-07	3013093.75	4.27182712883223E-05
2	586	125.121758684098	0.706329345703125	0.70623779296875	2.30712890625E-07	1.62938164294246E-07	3061111.25	4.27418599429075E-05
2	587	125.222466683844	0.696258544921875	0.696197509765625	2.2430419921875E-07	1.56160012920736E-07	3103809.75	4.27647719334345E-05
2	588	125.323174683589	0.686187744140625	0.686126708984375	2.1697998046875E-07	1.48875756167399E-07	3162166	4.27869927079882E-05
2	589	125.423882683335	0.676116943359375	0.676055908203125	2.105712890625E-07	1.42357961863127E-07	3210579.75	4.28085222665686E-05
2	590	125.524590683081	0.666046142578125	0.665985107421875	2.044677734375E-07	1.36172488396369E-07	3257164.25	4.28294188168366E-05
2	591	125.625298682827	0.655975341796875	0.6558837890625	1.9805908203125E-07	1.2990373932098E-07	3311556.25	4.28496896347497E-05
2	592	125.726006682572	0.645904541015625	0.645904541015625	1.9195556640625E-07	1.23984975175517E-07	3364865	4.28693274443503E-05
2	593	125.826714682318	0.635833740234375	0.635772705078125	1.8646240234375E-07	1.18547703209515E-07	3409656.25	4.28883831773419E-05
2	594	125.927422682064	0.625762939453125	0.625762939453125	1.8157958984375E-07	1.13625773678905E-07	3446218.75	4.29069150413852E-05
2	595	126.02813068181	0.615692138671875	0.615631103515625	1.7730712890625E-07	1.09155784855375E-07	3472117	4.292498488212E-05
2	596	126.128838681555	0.605621337890625	0.6055908203125	1.73339843750001E-07	1.04973018721921E-07	3493662	4.29426436312497E-05
2	597	126.229546681301	0.595550537109375	0.595489501953125	1.6937255859375E-07	1.00859580243196E-07	3515856	4.29598985647317E-05
2	598	126.330254681047	0.585479736328125	0.58544921875	1.66015625E-07	9.71937197391526E-08	3526470.5	4.29767860623542E-05
2	599	126.430962680793	0.575408935546875	0.575408935546875	1.629638671875E-07	9.37708577453122E-08	3530899	4.29933534178417E-05
2	600	126.531670680538	0.565338134765625	0.5653076171875	1.59606933593751E-07	9.0227011639854E-08	3541874	4.30095969932154E-05
2	601	126.632378680284	0.555267333984375	0.55523681640625	1.56555175781251E-07	8.69251977064778E-08	3546588.75	4.30255167884752E-05
2	602	126.73308668003	0.545196533203125	0.545196533203125	1.5411376953125E-07	8.40222895703846E-08	3537624	4.30411600973457E-05
2	603	126.833794679775	0.535125732421875	0.535125732421875	1.51672363281249E-07	8.11637761444217E-08	3528169.25	4.30565560236573E-05
2	604	126.934502679521	0.525054931640625	0.5250244140625	1.48925781250001E-07	7.81896716262054E-08	3525410	4.30716936534736E-05
2	605	127.035210679267	0.514984130859375	0.5150146484375	1.4617919921875E-07	7.52844258045116E-08	3523173.5	4.30865511589218E-05
2	606	127.135918679013	0.504913330078125	0.504852294921875	1.4373779296875E-07	7.2566358255699E-08	3512314.25	4.31011503678747E-05
2	607	127.236626678758	0.494842529296875	0.494781494140625	1.4190673828125E-07	7.02128275520408E-08	3486666.75	4.31155349360779E-05
2	608	127.337334678504	0.484771728515625	0.4847412109375	1.39770507812501E-07	6.775252359148E-08	3468122.25	4.31297194154467E-05
2	609	127.43804267825	0.474700927734375	0.47467041015625	1.3702392578125E-07	6.50411990932298E-08	3464142.75	4.31436565122567E-05
2	610	127.538750677996	0.464630126953125	0.464630126953125	1.34887695312499E-07	6.26728819952405E-08	3444570.5	4.31573462265078E-05
2	611	127.639458677741	0.454559326171875	0.45458984375	1.33056640625E-07	6.04861938313661E-08	3416514	4.31708394899033E-05
2	612	127.740166677487	0.444488525390625	0.444427490234375	1.30310058593749E-07	5.7913371875884E-08	3410538.75	4.31840999226552E-05
2	613	127.840874677233	0.434417724609375	0.434326171875	1.27563476562501E-07	5.54041541533934E-08	3404785	4.31970875069965E-05
2	614	127.941582676979	0.424346923828125	0.42431640625	1.251220703125E-07	5.30913482066353E-08	3391219.5	4.32098095188849E-05
2	615	128.042290676724	0.414276123046875	0.41424560546875	1.2237548828125E-07	5.06935045052614E-08	3385037.5	4.3222273234278E-05
2	616	128.14299867647	0.404205322265625	0.404144287109375	1.1932373046875E-07	4.82240025689862E-08	3386956.5	4.32344422733877E-05
2	617	128.243706676216	0.394134521484375	0.394134521484375	1.16882324218751E-07	4.60673561519798E-08	3372062.75	4.32463384640869E-05
2	618	128.344414675962	0.384063720703125	0.384033203125	1.141357421875E-07	4.38319140982912E-08	3364706	4.32579690823331E-05
2	619	128.445122675707	0.373992919921875	0.3740234375	1.11083984375E-07	4.15480130300239E-08	3367033	4.32693086622749E-05
2	620	128.545830675453	0.363922119140625	0.363922119140625	1.08642578125E-07	3.95374364359213E-08	3349719.25	4.3280375393806E-05
2	621	128.646538675199	0.353851318359375	0.353851318359375	1.0711669921875E-07	3.79033835429254E-08	3303418.75	4.3291238398524E-05
2	622	128.747246674944	0.343780517578125	0.34375	1.0498046875E-07	3.60870338056429E-08	3274418.75	4.33019195043016E-05
2	623	128.84795467469	0.333709716796875	0.33380126953125	1.02844238281249E-07	3.43295347704498E-08	3245697.5	4.33123823313508E-05
2	624	128.948662674436	0.323638916015625	0.323638916015625	1.0040283203125E-07	3.2494263280114E-08	3223404.25	4.3322619603714E-05
2	625	129.049370674182	0.313568115234375	0.3135986328125	9.85717773437506E-08	3.09119734254182E-08	3181424.25	4.33326385973487E-05
2	626	129.150078673927	0.303497314453125	0.303466796875	9.64355468749997E-08	2.92649851019178E-08	3146835.5	4.3342457502149E-05
2	627	129.250786673673	0.293426513671875	0.293426513671875	9.39941406250006E-08	2.7580371764202E-08	3121753.25	4.33520435763057E-05
2	628	129.351494673419	0.283355712890625	0.2833251953125	9.12475585937503E-08	2.58527315111223E-08	3105016.75	4.33613713539671E-05
2	629	129.452202673165	0.273284912109375	0.2733154296875	8.78906250000006E-08	2.40218636093914E-08	3109722.25	4.33703935414087E-05
2	630	129.55291067291	0.263214111328125	0.263275146484375	8.544921875E-08	2.24966552053729E-08	3081071.5	4.33791210525669E-05
2	631	129.653618672656	0.253143310546875	0.253082275390625	8.20922851562503E-08	2.07761026160824E-08	3082899.75	4.33875575254206E-05
2	632	129.754326672402	0.243072509765625	0.243072509765625	7.87353515625006E-08	1.91383993097816E-08	3087209.5	4.33956556662451E-05
2	633	129.855034672148	0.233001708984375	0.23297119140625	7.476806640625E-08	1.74188059531843E-08	3115918.25	4.34033863712102E-05
2	634	129.955742671893	0.222930908203125	0.222900390625	7.08007812499994E-08	1.57815218670976E-08	3148276	4.34107168985065E-05
2	635	130.056450671639	0.212860107421875	0.21282958984375	6.65283203125006E-08	1.41591938174201E-08	3199082.75	4.341762905824E-05
2	636	130.157158671385	0.202789306640625	0.202850341796875	6.19506835937506E-08	1.25667165562504E-08	3274384.5	4.34241010225378E-05
2	637	130.257866671131	0.192718505859375	0.19281005859375	5.645751953125E-08	1.08855777725125E-08	3415135.25	4.34300636698026E-05
2	638	130.358574670876	0.182647705078125	0.182708740234375	5.035400390625E-08	9.20011622440597E-09	3628484.75	4.34354406024795E-05
2	639	130.459282670622	0.172576904296875	0.172576904296875	4.36401367187506E-08	7.53127959995936E-09	3954545.5	4.34401736129075E-05
2	640	130.559990670368	0.162506103515625	0.16253662109375	3.57055664062494E-08	5.80346171119572E-09	4552137	4.34441681136377E-05
2	641	130.660698670113	0.152435302734375	0.1524658203125	2.593994140625E-08	3.95495414196034E-09	5877647.5	4.3447274947539E-05
2	642	130.761406669859	0.142364501953125	0.142425537109375	1.40380859374997E-08	1.99938177125603E-09	10145653	4.34492867498193E-05
2	643	130.862114669605	0.132293701171875	0.132354736328125	-9.15527343750555E-10	-1.21174376088717E-10	-144566672	4.34499488619622E-05
2	644	130.962822669351	0.122222900390625	0.122283935546875	-2.07519531250006E-08	-2.53763055013678E-09	-5892647	4.34488574683201E-05
2	645	131.063530669096	0.112152099609375	0.112152099609375	-4.69970703125003E-08	-5.27082022472314E-09	-2386363.75	4.3445445044199E-05
2	646	131.164238668842	0.102081298828125	0.102081298828125	-8.17871093750006E-08	-8.34893398860004E-09	-1248134.375	4.3438958527986E-05
2	647	131.264946668588	0.092010498046875	0.092071533203125	-1.2847900390625E-07	-1.18292584616597E-08	-716627.0625	4.34283720096573E-05
2	648	131.365654668334	0.081939697265625	0.081939697265625	-1.94091796875E-07	-1.59038222591334E-08	-422169.8125	4.34121284342837E-05
2	649	131.466362668079	0.071868896484375	0.071868896484375	-2.81372070312499E-07	-2.02218988221148E-08	-255423.015625	4.33881868957542E-05
2	650	131.567070667825	0.061798095703125	0.061798095703125	-3.96728515625E-07	-2.45170657109384E-08	-155769.234375	4.33540444646496E-05
2	651	131.667778667571	0.051727294921875	0.051788330078125	-5.462646484375E-07	-2.82901329029528E-08	-94804.46875	4.33065579272807E-05
2	652	131.768486667317	0.041656494140625	0.041729736328125	-7.305908203125E-07	-3.04873601919553E-08	-57117.796875	4.32422639278229E-05
2	653	131.869194667062	0.031585693359375	0.0316650390625	-9.46044921875E-07	-2.99565492412057E-08	-33470.96875	4.31578409916256E-05
2	654	131.969902666808	0.021514892578125	0.0216461181640625	-1.17889404296875E-06	-2.55184779973661E-08	-18361.37890625	4.30508407589514E-05
2	655	132.070610666554	0.011444091796875	0.011541748046875	-1.4111328125E-06	-1.62869397968279E-08	-8179.06640625	4.2920422856696E-05
2	656	132.171318666299	0.001373291015625	0.00145874023437501	-1.61773681640625E-06	-2.35985764263091E-09	-901.716674804688	4.27679078711662E-05
2	657	132.272026666045	-0.008697509765625	-0.00861206054687499	-1.7779541015625E-06	1.53118477896896E-08	4843.80419921875	4.25969192292541E-05
2	658	132.372734665791	-0.018768310546875	-0.0186767578125	-1.8804931640625E-06	3.51215128091553E-08	9931.8408203125	4.24127028963994E-05
2	659	132.473442665537	-0.028839111328125	-0.02869873046875	-1.925048828125E-06	5.52464562986188E-08	14908.0537109375	4.22210796386935E-05
2	660	132.574150665282	-0.038909912109375	-0.0387481689453125	-1.920166015625E-06	7.44029122756729E-08	20179.59375	4.20274554926436E-05
2	661	132.674858665028	-0.048980712890625	-0.048870849609375	-1.8804931640625E-06	9.19012990152623E-08	25988.31640625	4.18360759795178E-05
2	662	132.775566664774	-0.059051513671875	-0.058990478515625	-1.820068359375E-06	1.07366702195577E-07	32411.134765625	4.16497387050185E-05
2	663	132.87627466452	-0.069122314453125	-0.06903076171875	-1.75018310546875E-06	1.20816466164797E-07	39442.0234375	4.14699643442873E-05
2	664	132.976982664265	-0.079193115234375	-0.079132080078125	-1.67938232421875E-06	1.32893021032032E-07	47119.75390625	4.12972694903146E-05
2	665	133.077690664011	-0.089263916015625	-0.0892333984375	-1.6107177734375E-06	1.43729820933913E-07	55399.7734375	4.11315995734185E-05
2	666	133.178398663757	-0.099334716796875	-0.099273681640625	-1.5478515625E-06	1.5366092043223E-07	64136.4375	4.09725544159301E-05
2	667	133.279106663503	-0.109405517578125	-0.10931396484375	-1.49139404296875E-06	1.63030193789382E-07	73296.5078125	4.08195155614521E-05
2	668	133.379814663248	-0.119476318359375	-0.11944580078125	-1.44134521484375E-06	1.7216262904185E-07	82871.0625	4.06718427257147E-05
2	669	133.480522662994	-0.129547119140625	-0.12945556640625	-1.39739990234375E-06	1.80901182034177E-07	92640.3203125	4.05288992624264E-05
2	670	133.58123066274	-0.139617919921875	-0.13946533203125	-1.35955810546875E-06	1.8961121384109E-07	102581.375	4.03900739911478E-05
2	671	133.681938662486	-0.149688720703125	-0.149505615234375	-1.326904296875E-06	1.98379638050028E-07	112672.5	4.02547993871849E-05
2	672	133.782646662231	-0.159759521484375	-0.15960693359375	-1.29913330078125E-06	2.07350680625495E-07	122856.4765625	4.01225697714835E-05
2	673	133.883354661977	-0.169830322265625	-0.16973876953125	-1.2744140625E-06	2.16317459944548E-07	133189.65625	3.99929813283961E-05
2	674	133.984062661723	-0.179901123046875	-0.179718017578125	-1.25396728515625E-06	2.25360523131712E-07	143319.546875	3.98656666220631E-05
2	675	134.084770661468	-0.189971923828125	-0.189849853515625	-1.236572265625E-06	2.34763049888898E-07	153529.125	3.97402582166251E-05
2	676	134.185478661214	-0.200042724609375	-0.199859619140625	-1.22222900390625E-06	2.4427421863038E-07	163520.59375	3.96164468838833E-05
2	677	134.28618666096	-0.189971923828125	-0.1898193359375	-1.06842041015625E-06	2.02806845095438E-07	177663.53125	3.95011047658045E-05
