Potential - OCP -0.0426814658969056 V
Time (s)	WE(1).Potential (V)
7.13032098199767	-0.0442718505859375
7.23032098174519	-0.0442657470703125
7.33032098149272	-0.0442596435546875
7.43032098124024	-0.0442535400390625
7.53032098098777	-0.0442474365234375
7.63032098073529	-0.044244384765625
7.73032098048282	-0.0442413330078125
7.83032098023034	-0.0442352294921875
7.93032097997786	-0.044232177734375
8.03032097972539	-0.04422607421875
8.13032097947291	-0.044219970703125
8.23032097922044	-0.0442138671875
8.33032097896796	-0.0442108154296875
8.43032097871549	-0.0442047119140625
8.53032097846301	-0.04420166015625
8.63032097821053	-0.044195556640625
8.73032097795806	-0.0441925048828125
8.83032097770558	-0.0441864013671875
8.93032097745311	-0.0441802978515625
9.03032097720063	-0.04417724609375
9.13032097694816	-0.0441741943359375
9.23032097669568	-0.0441680908203125
9.3303209764432	-0.04415283203125
9.43032097619073	-0.0441497802734375
9.53032097593825	-0.0441436767578125
9.63032097568578	-0.0441375732421875
9.7303209754333	-0.0441314697265625
9.83032097518083	-0.0441253662109375
9.93032097492835	-0.044122314453125
10.0303209746759	-0.0441162109375
10.1303209744234	-0.0441131591796875
10.2303209741709	-0.0441070556640625
10.3303209739184	-0.0441009521484375
10.430320973666	-0.0440948486328125
10.5303209734135	-0.0440887451171875
10.630320973161	-0.0440826416015625
10.7303209729085	-0.0440765380859375
10.8303209726561	-0.044073486328125
10.9303209724036	-0.0440673828125
11.0303209721511	-0.044061279296875
11.1303209718986	-0.04405517578125
11.2303209716462	-0.044049072265625
11.3303209713937	-0.04404296875
11.4303209711412	-0.044036865234375
11.5303209708887	-0.04403076171875
11.6303209706363	-0.0440277099609375
11.7303209703838	-0.0440216064453125
11.8303209701313	-0.0440155029296875
11.9303209698788	-0.0440093994140625
12.0303209696264	-0.0440032958984375
12.1303209693739	-0.0439971923828125
12.2303209691214	-0.0439910888671875
12.3303209688689	-0.043988037109375
12.4303209686165	-0.04398193359375
12.530320968364	-0.043975830078125
12.6303209681115	-0.0439697265625
12.730320967859	-0.043963623046875
12.8303209676066	-0.0439605712890625
12.9303209673541	-0.0439544677734375
13.0303209671016	-0.0439483642578125
13.1303209668491	-0.0439422607421875
13.2303209665967	-0.0439361572265625
13.3303209663442	-0.0439300537109375
13.4303209660917	-0.0439239501953125
13.5303209658392	-0.0439178466796875
13.6303209655867	-0.0439117431640625
13.7303209653343	-0.0439056396484375
13.8303209650818	-0.0438995361328125
13.9303209648293	-0.0438934326171875
14.0303209645768	-0.0438873291015625
14.1303209643244	-0.0438812255859375
14.2303209640719	-0.0438751220703125
14.3303209638194	-0.0438690185546875
14.4303209635669	-0.0438629150390625
14.5303209633145	-0.0438568115234375
14.630320963062	-0.0438507080078125
14.7303209628095	-0.0438446044921875
14.830320962557	-0.0438385009765625
14.9303209623046	-0.0438323974609375
15.0303209620521	-0.0438262939453125
15.1303209617996	-0.0438201904296875
15.2303209615471	-0.0438140869140625
15.3303209612947	-0.043804931640625
15.4303209610422	-0.0438018798828125
15.5303209607897	-0.0437957763671875
15.6303209605372	-0.0437896728515625
15.7303209602848	-0.0437835693359375
15.8303209600323	-0.0437744140625
15.9303209597798	-0.0437713623046875
16.0303209595273	-0.043768310546875
16.1303209592749	-0.0437652587890625
16.2303209590224	-0.043756103515625
16.3303209587699	-0.0437469482421875
16.4303209585174	-0.0437408447265625
16.530320958265	-0.0437347412109375
16.6303209580125	-0.0437286376953125
16.73032095776	-0.0437255859375
16.8303209575075	-0.0437164306640625
16.930320957255	-0.0437103271484375
17.0303209570026	-0.043707275390625
17.1303209567501	-0.043701171875
17.2303209564976	-0.043695068359375
17.3303209562451	-0.04368896484375
17.4303209559927	-0.043682861328125
17.5303209557402	-0.0436767578125
17.6303209554877	-0.043670654296875
17.7303209552352	-0.0436614990234375
17.8303209549828	-0.0436553955078125
17.9303209547303	-0.0436492919921875
18.0303209544778	-0.0436431884765625
18.1303209542253	-0.0436370849609375
18.2303209539729	-0.0436309814453125
18.3303209537204	-0.0436279296875
18.4303209534679	-0.043621826171875
18.5303209532154	-0.043621826171875
18.630320952963	-0.0436279296875
18.7303209527105	-0.0436492919921875
18.830320952458	-0.043658447265625
18.9303209522055	-0.0436431884765625
19.0303209519531	-0.0436370849609375
19.1303209517006	-0.0436248779296875
19.2303209514481	-0.0436004638671875
19.3303209511956	-0.0435882568359375
19.4303209509432	-0.043572998046875
19.5303209506907	-0.0435577392578125
19.6303209504382	-0.0435394287109375
19.7303209501857	-0.043524169921875
19.8303209499333	-0.0435028076171875
19.9303209496808	-0.0434844970703125
20.0303209494283	-0.04346923828125
20.1303209491758	-0.0434722900390625
20.2303209489233	-0.043475341796875
20.3303209486709	-0.043475341796875
20.4303209484184	-0.04346923828125
20.5303209481659	-0.0434661865234375
20.6303209479134	-0.043463134765625
20.730320947661	-0.04345703125
20.8303209474085	-0.043450927734375
20.930320947156	-0.0434417724609375
21.0303209469035	-0.0434326171875
21.1303209466511	-0.0434326171875
21.2303209463986	-0.043426513671875
21.3303209461461	-0.0434112548828125
21.4303209458936	-0.043408203125
21.5303209456412	-0.0433990478515625
21.6303209453887	-0.0433929443359375
21.7303209451362	-0.0433868408203125
21.8303209448837	-0.0433807373046875
21.9303209446313	-0.0433746337890625
22.0303209443788	-0.043365478515625
22.1303209441263	-0.04334716796875
22.2303209438738	-0.04334716796875
22.3303209436214	-0.043341064453125
22.4303209433689	-0.0433380126953125
22.5303209431164	-0.0433319091796875
22.6303209428639	-0.04332275390625
22.7303209426115	-0.043316650390625
22.830320942359	-0.043310546875
22.9303209421065	-0.0433013916015625
23.030320941854	-0.0432952880859375
23.1303209416016	-0.0432891845703125
23.2303209413491	-0.0432830810546875
23.3303209410966	-0.0432769775390625
23.4303209408441	-0.043267822265625
23.5303209405917	-0.04326171875
23.6303209403392	-0.043255615234375
23.7303209400867	-0.0432464599609375
23.8303209398342	-0.0432403564453125
23.9303209395817	-0.0432342529296875
24.0303209393293	-0.04322509765625
24.1303209390768	-0.043218994140625
24.2303209388243	-0.043212890625
24.3303209385718	-0.0432037353515625
24.4303209383194	-0.0431976318359375
24.5303209380669	-0.0431915283203125
24.6303209378144	-0.0431854248046875
24.7303209375619	-0.04317626953125
24.8303209373095	-0.043170166015625
24.930320937057	-0.0431640625
25.0303209368045	-0.0431549072265625
25.130320936552	-0.0431488037109375
25.2303209362996	-0.0431396484375
25.3303209360471	-0.043133544921875
25.4303209357946	-0.04312744140625
25.5303209355421	-0.043121337890625
25.6303209352897	-0.043115234375
25.7303209350372	-0.0431060791015625
25.8303209347847	-0.0430999755859375
25.9303209345322	-0.0430938720703125
26.0303209342798	-0.0430877685546875
26.1303209340273	-0.04307861328125
26.2303209337748	-0.043072509765625
26.3303209335223	-0.04306640625
26.4303209332699	-0.043060302734375
26.5303209330174	-0.04305419921875
26.6303209327649	-0.043048095703125
26.7303209325124	-0.0430419921875
26.83032093226	-0.043035888671875
26.9303209320075	-0.04302978515625
27.030320931755	-0.043023681640625
27.1303209315025	-0.043017578125
27.23032093125	-0.043011474609375
27.3303209309976	-0.0430084228515625
27.4303209307451	-0.0430023193359375
27.5303209304926	-0.0429962158203125
27.6303209302401	-0.0429901123046875
27.7303209299877	-0.0429840087890625
27.8303209297352	-0.0429779052734375
27.9303209294827	-0.0429718017578125
28.0303209292302	-0.0429656982421875
28.1303209289778	-0.0429595947265625
28.2303209287253	-0.04295654296875
28.3303209284728	-0.0429473876953125
28.4303209282203	-0.0429443359375
28.5303209279679	-0.042938232421875
28.6303209277154	-0.04293212890625
28.7303209274629	-0.042926025390625
28.8303209272104	-0.042919921875
28.930320926958	-0.0429168701171875
29.0303209267055	-0.0429107666015625
29.130320926453	-0.0429046630859375
29.2303209262005	-0.0428985595703125
29.3303209259481	-0.0428924560546875
29.4303209256956	-0.0428863525390625
29.5303209254431	-0.0428802490234375
29.6303209251906	-0.0428741455078125
29.7303209249382	-0.0428680419921875
29.8303209246857	-0.042864990234375
29.9303209244332	-0.04285888671875
30.0303209241807	-0.042852783203125
30.1303209239283	-0.0428466796875
30.2303209236758	-0.042840576171875
30.3303209234233	-0.04283447265625
30.4303209231708	-0.042828369140625
30.5303209229183	-0.0428253173828125
30.6303209226659	-0.0428192138671875
30.7303209224134	-0.0428131103515625
30.8303209221609	-0.04281005859375
30.9303209219084	-0.042803955078125
31.030320921656	-0.0427978515625
31.1303209214035	-0.042791748046875
31.230320921151	-0.0427886962890625
31.3303209208985	-0.0427825927734375
31.4303209206461	-0.042779541015625
31.5303209203936	-0.0427734375
31.6303209201411	-0.0427703857421875
31.7303209198886	-0.042767333984375
31.8303209196362	-0.04276123046875
31.9303209193837	-0.0427581787109375
32.0303209191312	-0.0427520751953125
32.1303209188787	-0.0427490234375
32.2303209186263	-0.0427459716796875
32.3303209183738	-0.042742919921875
32.4303209181213	-0.04273681640625
32.5303209178688	-0.0427337646484375
32.6303209176164	-0.042730712890625
32.7303209173639	-0.0427276611328125
32.8303209171114	-0.042724609375
32.9303209168589	-0.042718505859375
33.0303209166065	-0.0427154541015625
33.130320916354	-0.04271240234375
33.2303209161015	-0.0427093505859375
33.330320915849	-0.042706298828125
33.4303209155966	-0.0427032470703125
33.5303209153441	-0.0427001953125
33.6303209150916	-0.0427001953125
33.7303209148391	-0.0426971435546875
33.8303209145867	-0.042694091796875
33.9303209143342	-0.0426910400390625
34.0303209140817	-0.04268798828125
34.1303209138292	-0.0426849365234375
34.2303209135767	-0.0426849365234375
34.3303209133243	-0.042681884765625
34.4303209130718	-0.0426788330078125
34.5303209128193	-0.04267578125
34.6303209125668	-0.04267578125
34.7303209123144	-0.0426727294921875
34.8303209120619	-0.042669677734375
34.9303209118094	-0.0426666259765625
35.0303209115569	-0.04266357421875
35.1303209113045	-0.0426605224609375
35.230320911052	-0.0426605224609375
35.3303209107995	-0.042657470703125
35.430320910547	-0.0426544189453125
35.5303209102946	-0.0426513671875
35.6303209100421	-0.0426483154296875
35.7303209097896	-0.042645263671875
35.8303209095371	-0.042645263671875
35.9303209092847	-0.0426422119140625
36.0303209090322	-0.0426422119140625
36.1303209087797	-0.04263916015625
36.2303209085272	-0.04263916015625
36.3303209082748	-0.04263916015625
36.4303209080223	-0.0426361083984375
36.5303209077698	-0.0426361083984375
36.6303209075173	-0.042633056640625
36.7303209072649	-0.042633056640625
36.8303209070124	-0.042633056640625
36.9303209067599	-0.0426300048828125
37.0303209065074	-0.0426300048828125
