Potential - Start -0.2 V, Upper Vertex 1.5 V, Lower Vertex -0.2 V, Stop -0.19 V; Scan - # end cross 5, Rate 0.1 Vps, Step 0.01 V 
Scan	Index	Time (s)	Potential applied (V)	WE(1).Potential (V)	WE(1).Current (A)	WE(1).Power (W)	WE(1).Resistance (Ω)	WE(1).Charge (C)
1	1	39.3920799005446	-0.189971923828125	-0.1898193359375	-2.03552246093749E-07	3.86381522332613E-08	932533.75	0
1	2	39.4927879002903	-0.179901123046875	-0.1798095703125	-1.7120361328125E-07	3.07840473112719E-08	1050267.375	-1.88704571968401E-08
1	3	39.593495900036	-0.169830322265625	-0.169677734375	-1.4617919921875E-07	2.48033540373171E-08	1160751.625	-3.48519506587763E-08
1	4	39.6942038997818	-0.159759521484375	-0.159698486328125	-1.2481689453125E-07	1.99330685290988E-08	1279462.125	-4.84976858672326E-08
1	5	39.7949118995275	-0.149688720703125	-0.149505615234375	-1.055908203125E-07	1.57864192829038E-08	1415896	-6.00996372668305E-08
1	6	39.8956198992732	-0.139617919921875	-0.1395263671875	-8.81958007812503E-08	1.23056391743148E-08	1582007	-6.98575703950155E-08
1	7	39.996327899019	-0.129547119140625	-0.129486083984375	-7.14111328125003E-08	9.24674736779707E-09	1813248	-7.78944126977876E-08
1	8	40.0970358987647	-0.119476318359375	-0.119415283203125	-5.40161132812494E-08	6.45034958779434E-09	2210734.5	-8.42101783860016E-08
1	9	40.1977438985105	-0.109405517578125	-0.10931396484375	-3.57055664062494E-08	3.90311694076217E-09	3061538.5	-8.87280222627851E-08
1	10	40.2984518982562	-0.099334716796875	-0.0992431640625	-1.64794921875003E-08	1.63547686504728E-09	6022222.5	-9.13557514081731E-08
1	11	40.3991598980019	-0.089263916015625	-0.08917236328125	5.49316406250056E-09	-4.89838447581548E-10	-16233333	-9.19089515605265E-08
1	12	40.4998678977477	-0.079193115234375	-0.079132080078125	3.204345703125E-08	-2.53566523333859E-09	-2469524	-9.0018836829131E-08
1	13	40.6005758974934	-0.069122314453125	-0.06903076171875	6.40869140625E-08	-4.42396830280245E-09	-1077142.875	-8.51782857580474E-08
1	14	40.7012838972391	-0.059051513671875	-0.05902099609375	1.05895996093749E-07	-6.25008711452324E-09	-557348.75	-7.66189671708162E-08
1	15	40.8019918969849	-0.048980712890625	-0.0488250732421875	1.61132812500001E-07	-7.86732101687448E-09	-303011.375	-6.31729974998052E-08
1	16	40.9026998967306	-0.038909912109375	-0.038787841796875	2.349853515625E-07	-9.11457487262624E-09	-165064.9375	-4.32268656425094E-08
1	17	41.0034078964763	-0.028839111328125	-0.0286895751953125	3.3416748046875E-07	-9.58712309540033E-09	-85853.875	-1.45677452323412E-08
1	18	41.1041158962221	-0.018768310546875	-0.0186737060546875	4.63256835937501E-07	-8.65072191658101E-09	-40309.62109375	2.55857575126583E-08
1	19	41.2048238959678	-0.008697509765625	-0.00859680175781249	6.243896484375E-07	-5.36775424109237E-09	-13768.3291015625	8.03531108317657E-08
1	20	41.3055318957136	0.001373291015625	0.0015106201171875	8.1817626953125E-07	1.23595356171791E-09	1846.32604980469	1.52992072344205E-07
1	21	41.4062398954593	0.011444091796875	0.01153564453125	1.03546142578125E-06	1.19447145507934E-08	11140.583984375	2.46330131403738E-07
1	22	41.506947895205	0.021514892578125	0.0216339111328125	1.26129150390625E-06	2.72866689243756E-08	17152.19140625	3.61980852403576E-07
1	23	41.6076558949508	0.031585693359375	0.0316802978515625	1.4752197265625E-06	4.67353977740004E-08	21474.96875	4.99775126172608E-07
1	24	41.7083638946965	0.041656494140625	0.041729736328125	1.6571044921875E-06	6.91505306349427E-08	25182.322265625	6.5750015210142E-07
1	25	41.8090718944422	0.051727294921875	0.0517578125	1.78802490234375E-06	9.25442549259969E-08	28946.919921875	8.30976205179468E-07
1	26	41.909779894188	0.061798095703125	0.06182861328125	1.8621826171875E-06	1.15136167266883E-07	33202.23046875	1.01477871794486E-06
1	27	42.0104878939337	0.071868896484375	0.071868896484375	1.883544921875E-06	1.35368296128036E-07	38156.19140625	1.20339109344059E-06
1	28	42.1111958936795	0.081939697265625	0.08197021484375	1.8646240234375E-06	1.5284362575585E-07	43960.72265625	1.39212636440789E-06
1	29	42.2119038934252	0.092010498046875	0.092071533203125	1.81671142578125E-06	1.6726740170725E-07	50680.33203125	1.57749639129179E-06
1	30	42.3126118931709	0.102081298828125	0.10205078125	1.754150390625E-06	1.79012417333979E-07	58176.7578125	1.7573034938323E-06
1	31	42.4133198929167	0.112152099609375	0.1121826171875	1.68548583984375E-06	1.89082214774317E-07	66558.03125	1.93050300367759E-06
1	32	42.5140278926624	0.122222900390625	0.122283935546875	1.6180419921875E-06	1.97860543948991E-07	75575.2578125	2.09684890251083E-06
1	33	42.6147358924081	0.132293701171875	0.132354736328125	1.5545654296875E-06	2.05754091098242E-07	85139.3828125	2.25660232899827E-06
1	34	42.7154438921539	0.142364501953125	0.142425537109375	1.495361328125E-06	2.12977639080236E-07	95244.8984375	2.41017824009759E-06
1	35	42.8161518918996	0.152435302734375	0.1524658203125	1.44256591796875E-06	2.19941995283079E-07	105690.7109375	2.5581146019249E-06
1	36	42.9168598916453	0.162506103515625	0.162567138671875	1.39495849609375E-06	2.26774403699892E-07	116539.0546875	2.70099531007872E-06
1	37	43.0175678913911	0.172576904296875	0.172607421875	1.3519287109375E-06	2.33352920986363E-07	127674.953125	2.83931217381905E-06
1	38	43.1182758911368	0.182647705078125	0.18267822265625	1.3140869140625E-06	2.40055044287146E-07	139015.34375	2.97355677503219E-06
1	39	43.2189838908826	0.192718505859375	0.192718505859375	1.28021240234375E-06	2.46720617269602E-07	150536.359375	3.10419000015827E-06
1	40	43.3196918906283	0.202789306640625	0.202880859375	1.24969482421875E-06	2.53539155892213E-07	162344.328125	3.23158087667252E-06
1	41	43.420399890374	0.212860107421875	0.212860107421875	1.22283935546875E-06	2.60293688825186E-07	174070.390625	3.35608297064027E-06
1	42	43.5211078901198	0.222930908203125	0.222900390625	1.19903564453125E-06	2.67265505726755E-07	185899.71875	3.47803415934322E-06
1	43	43.6218158898655	0.233001708984375	0.233001708984375	1.17767333984375E-06	2.74399894806265E-07	197849.1875	3.59771092917072E-06
1	44	43.7225238896112	0.243072509765625	0.24310302734375	1.15875244140625E-06	2.8169623078611E-07	209797.21875	3.71535929843958E-06
1	45	43.823231889357	0.253143310546875	0.253173828125	1.1407470703125E-06	2.88807285642179E-07	221936.875	3.83114820579067E-06
1	46	43.9239398891027	0.263214111328125	0.26324462890625	1.12457275390625E-06	2.96037711677855E-07	234084.140625	3.94521612179233E-06
1	47	44.0246478888484	0.273284912109375	0.27325439453125	1.10931396484375E-06	3.03124920719711E-07	246327.375	4.05770106226555E-06
1	48	44.1253558885942	0.283355712890625	0.2833251953125	1.0955810546875E-06	3.10405710024497E-07	258607.234375	4.16872671848978E-06
1	49	44.2260638883399	0.293426513671875	0.293426513671875	1.082763671875E-06	3.17711567277001E-07	270997.75	4.27841496275505E-06
1	50	44.3267718880857	0.303497314453125	0.303497314453125	1.07177734375E-06	3.25281547475242E-07	283172	4.38690449300339E-06
1	51	44.4274798878314	0.313568115234375	0.313568115234375	1.060791015625E-06	3.32630236243858E-07	295598.40625	4.49428807769436E-06
1	52	44.5281878875771	0.323638916015625	0.323699951171875	1.051025390625E-06	3.40216871563825E-07	307984.90625	4.60062665297301E-06
1	53	44.6288958873229	0.333709716796875	0.333709716796875	1.04156494140625E-06	3.47580339621345E-07	320392.625	4.70599661639426E-06
1	54	44.7296038870686	0.343780517578125	0.343780517578125	1.0333251953125E-06	3.55237062876768E-07	332693.46875	4.81047572975513E-06
1	55	44.8303118868143	0.353851318359375	0.35382080078125	1.025390625E-06	3.62804513542869E-07	345059.53125	4.91414039061056E-06
1	56	44.9310198865601	0.363922119140625	0.3638916015625	1.01776123046875E-06	3.70354740653056E-07	357541.25	5.01702106703306E-06
1	57	45.0317278863058	0.373992919921875	0.373992919921875	1.011962890625E-06	3.78466921802101E-07	369571.8125	5.11922598889214E-06
1	58	45.1324358860516	0.384063720703125	0.384033203125	1.00616455078125E-06	3.86400586194213E-07	381680.3125	5.22084656040533E-06
1	59	45.2331438857973	0.394134521484375	0.394134521484375	1.002197265625E-06	3.95000512298793E-07	393270.40625	5.32197555003222E-06
1	60	45.333851885543	0.404205322265625	0.40423583984375	9.9822998046875E-07	4.03520346026198E-07	404952.59375	5.42270527148503E-06
1	61	45.4345598852888	0.414276123046875	0.41424560546875	9.9517822265625E-07	4.12248198244924E-07	416252.6875	5.52308119949885E-06
1	62	45.5352678850345	0.424346923828125	0.42431640625	9.918212890625E-07	4.20846021143007E-07	427815.40625	5.62313471164089E-06
1	63	45.6359758847802	0.434417724609375	0.43438720703125	9.89379882812499E-07	4.29773933774413E-07	439050	5.72289627598366E-06
1	64	45.736683884526	0.444488525390625	0.444488525390625	9.8724365234375E-07	4.38818489101322E-07	450231.84375	5.82242682867218E-06
1	65	45.8373918842717	0.454559326171875	0.454559326171875	9.85107421875001E-07	4.47789744839611E-07	461431.25	5.92174274061108E-06
1	66	45.9380998840174	0.464630126953125	0.464630126953125	9.8480224609375E-07	4.5756877398162E-07	471800.4375	6.02093541601789E-06
1	67	46.0388078837632	0.474700927734375	0.474700927734375	9.8419189453125E-07	4.67196770159717E-07	482325.59375	6.12008216194226E-06
1	68	46.1395158835089	0.484771728515625	0.484771728515625	9.8480224609375E-07	4.77404284993099E-07	492252.875	6.21922890786664E-06
1	69	46.2402238832547	0.494842529296875	0.494781494140625	9.8541259765625E-07	4.87563909246091E-07	502105.90625	6.31843704468338E-06
1	70	46.3409318830004	0.504913330078125	0.5048828125	9.86633300781251E-07	4.98134170356934E-07	511722.875	6.41773749521235E-06
1	71	46.4416398827461	0.514984130859375	0.514984130859375	9.8876953125E-07	5.09200617671013E-07	520833.3125	6.51720711175585E-06
1	72	46.5423478824919	0.525054931640625	0.5250244140625	9.906005859375E-07	5.2008948614457E-07	530006.125	6.61687636238639E-06
1	73	46.6430558822376	0.535125732421875	0.53509521484375	9.930419921875E-07	5.31372052137158E-07	538844.5	6.7167607085139E-06
1	74	46.7437638819833	0.545196533203125	0.545135498046875	9.9609375E-07	5.43006024145143E-07	547273.3125	6.81692154103075E-06
1	75	46.8444718817291	0.555267333984375	0.55523681640625	1.0003662109375E-06	5.55440124117013E-07	555033.5625	6.91745117364917E-06
1	76	46.9451798814748	0.565338134765625	0.5653076171875	1.00494384765625E-06	5.6810239357219E-07	562526.625	7.01842645867146E-06
1	77	47.0458878812206	0.575408935546875	0.575408935546875	1.0113525390625E-06	5.81941264954366E-07	568949.9375	7.11995517121977E-06
1	78	47.1465958809663	0.585479736328125	0.58538818359375	1.01837158203125E-06	5.96142683662038E-07	574827.6875	7.22216009307886E-06
1	79	47.247303880712	0.595550537109375	0.595611572265625	1.02691650390625E-06	6.1164337239461E-07	580000	7.32514854462352E-06
1	80	47.3480118804578	0.605621337890625	0.605560302734375	1.03759765625E-06	6.28327939011797E-07	583617.6875	7.42910515327821E-06
1	81	47.4487198802035	0.615692138671875	0.615631103515625	1.051025390625E-06	6.47043918888812E-07	585743.3125	7.53427548261243E-06
1	82	47.5494278799492	0.625762939453125	0.625701904296875	1.068115234375E-06	6.68321717967046E-07	585800	7.64098240324529E-06
1	83	47.650135879695	0.635833740234375	0.635772705078125	1.09161376953125E-06	6.94018240210426E-07	582415.4375	7.74973341322038E-06
1	84	47.7508438794407	0.645904541015625	0.645843505859375	1.12091064453125E-06	7.23932828350371E-07	576177.5	7.86114287620876E-06
1	85	47.8515518791864	0.655975341796875	0.6558837890625	1.15692138671875E-06	7.58805981604382E-07	566921.6875	7.97584107203875E-06
1	86	47.9522598789322	0.666046142578125	0.665985107421875	1.19842529296875E-06	7.98133385160327E-07	555716.875	8.09444190963404E-06
1	87	48.0529678786779	0.676116943359375	0.676055908203125	1.24267578125E-06	8.40118218548014E-07	544032.4375	8.21736102807336E-06
1	88	48.1536758784237	0.686187744140625	0.686126708984375	1.28570556640625E-06	8.82156882653362E-07	533657.75	8.34467573440634E-06
1	89	48.2543838781694	0.696258544921875	0.69622802734375	1.324462890625E-06	9.22128094771324E-07	525668.25	8.47610772325424E-06
1	90	48.3550918779151	0.706329345703125	0.706268310546875	1.3543701171875E-06	9.56548660724366E-07	521473.65625	8.61099761095829E-06
1	91	48.4557998776609	0.716400146484375	0.716339111328125	1.3739013671875E-06	9.84179223451065E-07	521390.5	8.7483776951558E-06
1	92	48.5565078774066	0.726470947265625	0.726348876953125	1.3861083984375E-06	1.00679824299732E-06	524020.28125	8.88735485204961E-06
1	93	48.6572158771523	0.736541748046875	0.736419677734375	1.39129638671875E-06	1.02457795492228E-06	529304.6875	9.02720785234123E-06
1	94	48.7579238768981	0.746612548828125	0.74658203125	1.39404296875E-06	1.04076741536119E-06	535551.6875	9.16746103030164E-06
1	95	48.8586318766438	0.756683349609375	0.7568359375	1.39617919921875E-06	1.05667857042135E-06	542076.5	9.30795977183152E-06
1	96	48.9593398763895	0.766754150390625	0.76690673828125	1.4013671875E-06	1.07471794308367E-06	547256.125	9.44882776821032E-06
1	97	49.0600478761353	0.776824951171875	0.77667236328125	1.41204833984375E-06	1.09669883840979E-06	550032.4375	9.59049430093728E-06
1	98	49.160755875881	0.786895751953125	0.787353515625	1.431884765625E-06	1.12739940050233E-06	549872.125	9.73369787971023E-06
1	99	49.2614638756268	0.796966552734375	0.7977294921875	1.46392822265625E-06	1.16781859560433E-06	544923.9375	9.87951352726668E-06
1	100	49.3621718753725	0.807037353515625	0.80718994140625	1.510009765625E-06	1.21886466786236E-06	534559.4375	1.0029263648903E-05
1	101	49.4628798751182	0.817108154296875	0.8172607421875	1.57073974609375E-06	1.28370390939381E-06	520303.09375	1.01843916127109E-05
1	102	49.563587874864	0.827178955078125	0.82672119140625	1.6461181640625E-06	1.36088067392848E-06	502224.71875	1.03463726190967E-05
1	103	49.6642958746097	0.837249755859375	0.83709716796875	1.73187255859375E-06	1.44974558224931E-06	483348.03125	1.05164681372116E-05
1	104	49.7650038743554	0.847320556640625	0.84686279296875	1.81976318359375E-06	1.54108965944033E-06	465369.78125	1.06953075373895E-05
1	105	49.8657118741012	0.857391357421875	0.8575439453125	1.9012451171875E-06	1.63040112965973E-06	451043.375	1.08826752693858E-05
1	106	49.9664198738469	0.867462158203125	0.867919921875	1.9677734375E-06	1.70786972830683E-06	441067	1.10774954009685E-05
1	107	50.0671278735927	0.877532958984375	0.87738037109375	2.01263427734375E-06	1.76584580913186E-06	435936.3125	1.12779252958717E-05
1	108	50.1678358733384	0.887603759765625	0.88775634765625	2.03582763671875E-06	1.80731876753271E-06	436066.59375	1.14817812573165E-05
1	109	50.2685438730841	0.897674560546875	0.8978271484375	2.03887939453125E-06	1.83056124569703E-06	440353.25	1.16869587145629E-05
1	110	50.3692518728299	0.907745361328125	0.90789794921875	2.027587890625E-06	1.84084296961373E-06	447772.40625	1.18917223517201E-05
1	111	50.4699598725756	0.917816162109375	0.91827392578125	2.00653076171875E-06	1.84254474788759E-06	457642.625	1.20948561743717E-05
1	112	50.5706678723213	0.927886962890625	0.92803955078125	1.98028564453125E-06	1.83778331575013E-06	468639.25	1.22956080303993E-05
1	113	50.6713758720671	0.937957763671875	0.93780517578125	1.95220947265625E-06	1.83079214366444E-06	480381.4375	1.24936250358587E-05
1	114	50.7720838718128	0.948028564453125	0.9478759765625	1.92413330078125E-06	1.82383973879041E-06	492624.875	1.26888144222903E-05
1	115	50.8727918715585	0.958099365234375	0.95794677734375	1.89727783203125E-06	1.81749112471152E-06	504905.90625	1.28812380353338E-05
1	116	50.9734998713043	0.968170166015625	0.9686279296875	1.8731689453125E-06	1.81440373125952E-06	517106.5625	1.30710950543289E-05
1	117	51.07420787105	0.978240966796875	0.97869873046875	1.85211181640625E-06	1.81265943410835E-06	528423.1875	1.32586774270749E-05
1	118	51.1749158707958	0.988311767578125	0.98876953125	1.83380126953125E-06	1.81320672254515E-06	539191.25	1.34442780108657E-05
1	119	51.2756238705415	0.998382568359375	0.99853515625	1.8182373046875E-06	1.81557379619335E-06	549177.5625	1.36281723825959E-05
1	120	51.3763318702872	1.00845336914063	1.00860595703125	1.8035888671875E-06	1.81911048002803E-06	559221.6875	1.38105460791849E-05
1	121	51.477039870033	1.01852416992188	1.01837158203125	1.7919921875E-06	1.82491396572004E-06	568290.1875	1.39915982799721E-05
1	122	51.5777478697787	1.02859497070313	1.02874755859375	1.78131103515625E-06	1.83251927410311E-06	577522.75	1.41715281642973E-05
1	123	51.6784558695244	1.03866577148438	1.03851318359375	1.77215576171875E-06	1.84040709427791E-06	586016.875	1.435045942344E-05
1	124	51.7791638692702	1.04873657226563	1.04888916015625	1.76361083984375E-06	1.84983230155922E-06	594739.5625	1.4528499377775E-05
1	125	51.8798718690159	1.05880737304688	1.05865478515625	1.7578125E-06	1.8609165408634E-06	602256.9375	1.47058171933168E-05
1	126	51.9805798687617	1.06887817382813	1.0693359375	1.7529296875E-06	1.87447062671708E-06	610027.875	1.48825965879951E-05
1	127	52.0812878685074	1.07894897460938	1.0784912109375	1.7486572265625E-06	1.88591138794436E-06	616753.9375	1.50589157783543E-05
1	128	52.1819958682531	1.08901977539063	1.0894775390625	1.74530029296875E-06	1.90146533896041E-06	624235.0625	1.52348502524546E-05
1	129	52.2827038679989	1.09909057617188	1.09954833984375	1.7431640625E-06	1.91669300875219E-06	630777.3125	1.54105091496604E-05
1	130	52.3834118677446	1.10916137695313	1.10931396484375	1.74072265625E-06	1.93100800061075E-06	637272.125	1.55859361257171E-05
1	131	52.4841198674903	1.11923217773438	1.119384765625	1.739501953125E-06	1.947171995198E-06	643508.75	1.57611793838441E-05
1	132	52.5848278672361	1.12930297851563	1.129150390625	1.7388916015625E-06	1.96347014025378E-06	649350.6875	1.59363298735116E-05
1	133	52.6855358669818	1.13937377929688	1.13922119140625	1.73919677734375E-06	1.98132966033882E-06	655027.25	1.61114658112638E-05
1	134	52.7862438667275	1.14944458007813	1.1492919921875	1.74102783203125E-06	2.00094928004546E-06	660122.75	1.62867090693908E-05
1	135	52.8869518664733	1.15951538085938	1.15997314453125	1.7437744140625E-06	2.02273145077925E-06	665208.25	1.6462183339172E-05
1	136	52.987659866219	1.16958618164063	1.16943359375	1.74713134765625E-06	2.04315392693388E-06	669345	1.66379650181625E-05
1	137	53.0883678659648	1.17965698242188	1.17950439453125	1.75079345703125E-06	2.06506865652045E-06	673697.0625	1.68140995810973E-05
1	138	53.1890758657105	1.18972778320313	1.18988037109375	1.75506591796875E-06	2.08831852432922E-06	677969.0625	1.69906325027114E-05
1	139	53.2897838654562	1.19979858398438	1.19964599609375	1.7596435546875E-06	2.11094925361976E-06	681755.125	1.71676128957188E-05
1	140	53.390491865202	1.20986938476563	1.21002197265625	1.76483154296875E-06	2.13548491956317E-06	685630.3125	1.73450844158651E-05
1	141	53.4911998649477	1.21994018554688	1.2200927734375	1.77154541015625E-06	2.16144962905673E-06	688716.625	1.75231543835253E-05
1	142	53.5919078646934	1.23001098632813	1.2298583984375	1.77886962890625E-06	2.18775767280022E-06	691370.75	1.77019319380634E-05
1	143	53.6926158644392	1.24008178710938	1.240234375	1.7864990234375E-06	2.21567734115524E-06	694226.1875	1.78814625542145E-05
1	144	53.7933238641849	1.25015258789063	1.25	1.795654296875E-06	2.24456789510441E-06	696125.125	1.80618390004383E-05
1	145	53.8940318639306	1.26022338867188	1.2603759765625	1.80450439453125E-06	2.27435384658747E-06	698461.0625	1.82431213033851E-05
1	146	53.9947398636764	1.27029418945313	1.27044677734375	1.8133544921875E-06	2.30377031584794E-06	700605.875	1.84252949111396E-05
1	147	54.0954478634221	1.28036499023438	1.28021240234375	1.822509765625E-06	2.33319951803423E-06	702444.75	1.86083743756171E-05
1	148	54.1961558631679	1.29043579101563	1.29058837890625	1.8316650390625E-06	2.36392565966526E-06	704598.5	1.87923778867116E-05
1	149	54.2968638629136	1.30050659179688	1.29974365234375	1.8408203125E-06	2.39259452428087E-06	706067.6875	1.89773018064443E-05
1	150	54.3975718626593	1.31057739257813	1.3104248046875	1.8511962890625E-06	2.42585338128265E-06	707880	1.91632097994443E-05
1	151	54.4982798624051	1.32064819335938	1.32049560546875	1.86248779296875E-06	2.45940691456781E-06	708995.625	1.9350207367097E-05
1	152	54.5989878621508	1.33071899414063	1.33087158203125	1.873779296875E-06	2.49375966632215E-06	710260.5625	1.95383436221164E-05
1	153	54.6996958618965	1.34078979492188	1.3409423828125	1.88507080078125E-06	2.52777135756332E-06	711348.5625	1.97276167455129E-05
1	154	54.8004038616423	1.35086059570313	1.35101318359375	1.89697265625E-06	2.56283510680078E-06	712194.3125	1.99180576601066E-05
1	155	54.901111861388	1.36093139648438	1.361083984375	1.90948486328125E-06	2.59896910392854E-06	712801.6875	2.0109728211537E-05
1	156	55.0018198611338	1.37100219726563	1.370849609375	1.92230224609375E-06	2.63518700194254E-06	713129.125	2.03026738745393E-05
1	157	55.1025278608795	1.38107299804688	1.38092041015625	1.93695068359375E-06	2.67477457782661E-06	712935.25	2.04970037884777E-05
1	158	55.2032358606252	1.39114379882813	1.39068603515625	1.95404052734375E-06	2.71745693680714E-06	711697.625	2.06929307751125E-05
1	159	55.303943860371	1.40121459960938	1.40167236328125	1.97357177734375E-06	2.7663008950185E-06	710221.1875	2.0890700398013E-05
1	160	55.4046518601167	1.41128540039063	1.41143798828125	1.9964599609375E-06	2.81787947642442E-06	706970.3125	2.10906073334627E-05
1	161	55.5053598598624	1.42135620117188	1.4208984375	2.02239990234375E-06	2.87362490780652E-06	702580.3125	2.1292973542586E-05
1	162	55.6060678596082	1.43142700195313	1.43096923828125	2.05230712890625E-06	2.93678840534994E-06	697249.0625	2.14981519093271E-05
1	163	55.7067758593539	1.44149780273438	1.441650390625	2.08648681640625E-06	3.00798456009943E-06	690946.3125	2.17065571632702E-05
1	164	55.8074838590996	1.45156860351563	1.4520263671875	2.12615966796875E-06	3.087239974775E-06	682933.8125	2.19186804315541E-05
1	165	55.9081918588454	1.46163940429688	1.46148681640625	2.171630859375E-06	3.17380977321591E-06	672990.5	2.21350910578622E-05
1	166	56.0088998585911	1.47171020507813	1.4715576171875	2.2247314453125E-06	3.27382031173329E-06	661454.0625	2.23564657062525E-05
1	167	56.1096078583369	1.48178100585938	1.48162841796875	2.28668212890625E-06	3.38801305588277E-06	647938.125	2.25836338358931E-05
1	168	56.2103158580826	1.49185180664063	1.4910888671875	2.35931396484375E-06	3.5179466522095E-06	632001.0625	2.2817577701062E-05
1	169	56.3110238578283	1.50192260742188	1.50146484375	2.442626953125E-06	3.66751851288427E-06	614692.625	2.30593741434859E-05
1	170	56.4117318575741	1.49185180664063	1.4923095703125	2.188720703125E-06	3.26624876834103E-06	681818.1875	2.32925813179463E-05
1	171	56.5124398573198	1.48178100585938	1.48193359375	2.00347900390625E-06	2.96902294394386E-06	739680.125	2.35036750382278E-05
1	172	56.6131478570655	1.47171020507813	1.4715576171875	1.8585205078125E-06	2.73491991720221E-06	791789.8125	2.36981431953609E-05
1	173	56.7138558568113	1.46163940429688	1.4617919921875	1.74041748046875E-06	2.54412839240103E-06	839908.8125	2.3879363652668E-05
1	174	56.814563856557	1.45156860351563	1.45172119140625	1.641845703125E-06	2.38350207837357E-06	884200.75	2.40496738115326E-05
1	175	56.9152718563028	1.44149780273438	1.44134521484375	1.55914306640625E-06	2.24726341002679E-06	924447.0625	2.42108562815702E-05
1	176	57.0159798560485	1.43142700195313	1.4312744140625	1.48834228515625E-06	2.13022622119752E-06	961656.75	2.43643098656321E-05
1	177	57.1166878557942	1.42135620117188	1.4208984375	1.42791748046875E-06	2.02892579181935E-06	995084.4375	2.45111550611909E-05
1	178	57.21739585554	1.41128540039063	1.41143798828125	1.37420654296875E-06	1.93960727301601E-06	1027093.125	2.4652254069224E-05
1	179	57.3181038552857	1.40121459960938	1.40106201171875	1.32659912109375E-06	1.85864757895615E-06	1056130.75	2.47882489929907E-05
1	180	57.4188118550314	1.39114379882813	1.3909912109375	1.2841796875E-06	1.78628260982805E-06	1083174.875	2.49197128141532E-05
1	181	57.5195198547772	1.38107299804688	1.3812255859375	1.246337890625E-06	1.72147383636911E-06	1108227.25	2.5047134840861E-05
1	182	57.6202278545229	1.37100219726563	1.37054443359375	1.2115478515625E-06	1.6604800521236E-06	1131234.375	2.51708988798782E-05
1	183	57.7209358542686	1.36093139648438	1.361083984375	1.18072509765625E-06	1.60706599672267E-06	1152752.625	2.52913596341386E-05
1	184	57.8216438540144	1.35086059570313	1.35101318359375	1.15264892578125E-06	1.55724387695955E-06	1172094.25	2.54088536166819E-05
1	185	57.9223518537601	1.34078979492188	1.34033203125	1.1279296875E-06	1.5118001783776E-06	1188311.75	2.55236900557065E-05
1	186	58.0230598535059	1.33071899414063	1.33056640625	1.10443115234375E-06	1.46951902024739E-06	1204752.75	2.56360981438775E-05
1	187	58.1237678532516	1.32064819335938	1.32080078125	1.082763671875E-06	1.43011516229308E-06	1219842.125	2.5746232495294E-05
1	188	58.2244758529973	1.31057739257813	1.31103515625	1.0626220703125E-06	1.39313476665848E-06	1233773.75	2.58542604569811E-05
1	189	58.3251838527431	1.30050659179688	1.30035400390625	1.04339599609375E-06	1.35678408241802E-06	1246270.875	2.59603075392079E-05
1	190	58.4258918524888	1.29043579101563	1.29058837890625	1.02630615234375E-06	1.32453874357452E-06	1257508.25	2.60645247180946E-05
1	191	58.5265998522345	1.28036499023438	1.280517578125	1.009521484375E-06	1.29271006699128E-06	1268440.125	2.61670375039103E-05
1	192	58.6273078519803	1.27029418945313	1.2701416015625	9.9517822265625E-07	1.26401721445291E-06	1276295.625	2.626798232086E-05
1	193	58.728015851726	1.26022338867188	1.2603759765625	9.8114013671875E-07	1.23660549888882E-06	1284603.375	2.63674974121386E-05
1	194	58.8287238514718	1.25015258789063	1.2493896484375	9.6893310546875E-07	1.21057507840305E-06	1289448.75	2.64656919171102E-05
1	195	58.9294318512175	1.24008178710938	1.240234375	9.564208984375E-07	1.18618606848031E-06	1296745.375	2.65626404143404E-05
1	196	59.0301398509632	1.23001098632813	1.23016357421875	9.4451904296875E-07	1.16191290544521E-06	1302423.375	2.66583610937232E-05
1	197	59.130847850709	1.21994018554688	1.21978759765625	9.326171875E-07	1.1375948361092E-06	1307918.875	2.67528830590891E-05
1	198	59.2315558504547	1.20986938476563	1.21002197265625	9.21020507812501E-07	1.11445501715934E-06	1313784	2.68462208623532E-05
1	199	59.3322638502004	1.19979858398438	1.19903564453125	9.0972900390625E-07	1.0907974683505E-06	1318014.125	2.69384054263355E-05
1	200	59.4329718499462	1.18972778320313	1.1895751953125	8.990478515625E-07	1.06948505163018E-06	1323150	2.70294858637499E-05
1	201	59.5336798496919	1.17965698242188	1.1798095703125	8.88671874999999E-07	1.04846355952759E-06	1327609.875	2.71195040113525E-05
1	202	59.6343878494376	1.16958618164063	1.1700439453125	8.7921142578125E-07	1.02871604212851E-06	1330787.875	2.72085235337727E-05
1	203	59.7350958491834	1.15951538085938	1.15936279296875	8.697509765625E-07	1.00835688954248E-06	1332982.5	2.72965917247348E-05
1	204	59.8358038489291	1.14944458007813	1.1492919921875	8.5906982421875E-07	9.87322096079879E-07	1337833	2.73836449196097E-05
1	205	59.9365118486749	1.13937377929688	1.1395263671875	8.48388671875E-07	9.66761263043736E-07	1343165.5	2.74696212727576E-05
1	206	60.0372198484206	1.12930297851563	1.12945556640625	8.3740234375E-07	9.45808665164805E-07	1348761	2.75545080512529E-05
1	207	60.1379278481663	1.11923217773438	1.11907958984375	8.2733154296875E-07	9.25849803934398E-07	1352637.5	2.76383343589259E-05
1	208	60.2386358479121	1.10916137695313	1.1090087890625	8.17260742187501E-07	9.06349328033684E-07	1356982.875	2.77211456705118E-05
1	209	60.3393438476578	1.09909057617188	1.09893798828125	8.07800292968749E-07	8.87722421794024E-07	1360408	2.78029747278197E-05
1	210	60.4400518474035	1.08901977539063	1.08856201171875	7.98950195312501E-07	8.69706809680793E-07	1362490.5	2.78838797385106E-05
1	211	60.5407598471493	1.07894897460938	1.07879638671875	7.89794921875001E-07	8.52027881137474E-07	1365919.625	2.79638807114679E-05
1	212	60.641467846895	1.06887817382813	1.0687255859375	7.8094482421875E-07	8.3461566191545E-07	1368503.375	2.80429721897235E-05
1	213	60.7421758466407	1.05880737304688	1.05865478515625	7.7178955078125E-07	8.17058662505588E-07	1371688.5	2.81211596302455E-05
1	214	60.8428838463865	1.04873657226563	1.048583984375	7.6171875E-07	7.98726091488788E-07	1376602.5	2.81983775494155E-05
1	215	60.9435918461322	1.03866577148438	1.038818359375	7.53173828125001E-07	7.82410779720522E-07	1379254.5	2.82746586890426E-05
1	216	61.044299845878	1.02859497070313	1.029052734375	7.4493408203125E-07	7.66576476962655E-07	1381401	2.8350093998597E-05
1	217	61.1450078456237	1.01852416992188	1.01806640625	7.366943359375E-07	7.50003721350367E-07	1381938.75	2.84246998489834E-05
1	218	61.2457158453694	1.00845336914063	1.00830078125	7.28759765625001E-07	7.34809020741523E-07	1383584.625	2.84984907921171E-05
1	219	61.3464238451152	0.998382568359375	0.99884033203125	7.1990966796875E-07	7.19074762400851E-07	1387452.375	2.85714377241675E-05
1	220	61.4471318448609	0.988311767578125	0.98846435546875	7.1075439453125E-07	7.02555325915455E-07	1390725.75	2.86434769805055E-05
1	221	61.5478398446066	0.978240966796875	0.97808837890625	7.000732421875E-07	6.84733436173701E-07	1397123	2.8714517611661E-05
1	222	61.6485478443524	0.968170166015625	0.968017578125	6.8817138671875E-07	6.66162009110849E-07	1406651.875	2.87844213744393E-05
1	223	61.7492558440981	0.958099365234375	0.958251953125	6.73828125000001E-07	6.45697070922324E-07	1422101.5	2.88530045509106E-05
1	224	61.8499638438439	0.948028564453125	0.948486328125	6.56738281249999E-07	6.22907293745811E-07	1444237.875	2.89200033876114E-05
1	225	61.9506718435896	0.937957763671875	0.9381103515625	6.35681152343751E-07	5.96339077674202E-07	1475756.125	2.8985081371502E-05
1	226	62.0513798433353	0.927886962890625	0.927734375	6.085205078125E-07	5.64545416636975E-07	1524573.75	2.90477328235283E-05
1	227	62.1520878430811	0.917816162109375	0.91796875	5.7403564453125E-07	5.26946791978844E-07	1599149.375	2.91072792606428E-05
1	228	62.2527958428268	0.907745361328125	0.90789794921875	5.28869628906251E-07	4.80159656035539E-07	1716676.25	2.91628148261225E-05
1	229	62.3535038425725	0.897674560546875	0.89813232421875	4.70886230468751E-07	4.2291813429074E-07	1907323.375	2.9213157176855E-05
1	230	62.4542118423183	0.887603759765625	0.88775634765625	3.9794921875E-07	3.5328193348505E-07	2230828.25	2.92569056909997E-05
1	231	62.554919842064	0.877532958984375	0.877685546875	3.1097412109375E-07	2.72937484169233E-07	2822375	2.92926033580443E-05
1	232	62.6556278418097	0.867462158203125	0.867919921875	2.12707519531249E-07	1.84613099918352E-07	4080344.25	2.93189714284381E-05
1	233	62.7563358415555	0.857391357421875	0.85784912109375	1.0986328125E-07	9.42461184649801E-08	7808333.5	2.93352150038118E-05
1	234	62.8570438413012	0.847320556640625	0.84747314453125	1.12915039062494E-08	9.56924584016861E-09	75054056	2.93413158942712E-05
1	235	62.957751841047	0.837249755859375	0.83709716796875	-7.41577148437506E-08	-6.20772127035707E-08	-11288066	2.93381508527091E-05
1	236	63.0584598407927	0.827178955078125	0.82733154296875	-1.37939453124999E-07	-1.14121661454192E-07	-5997787.5	2.93274697469315E-05
1	237	63.1591678405384	0.817108154296875	0.8172607421875	-1.7974853515625E-07	-1.46901413700107E-07	-4546689.5	2.93114735541167E-05
1	238	63.2598758402842	0.807037353515625	0.8074951171875	-1.99279785156251E-07	-1.60917451808018E-07	-4052067.5	2.92923868983053E-05
1	239	63.3605838400299	0.796966552734375	0.797119140625	-2.01416015625E-07	-1.60552559691496E-07	-3957575.75	2.92722106678411E-05
1	240	63.4612918397756	0.786895751953125	0.78704833984375	-1.9073486328125E-07	-1.50117543284978E-07	-4126400.25	2.92524655378656E-05
1	241	63.5619998395214	0.776824951171875	0.77667236328125	-1.739501953125E-07	-1.35102297349476E-07	-4464912.5	2.92341010208474E-05
1	242	63.6627078392671	0.766754150390625	0.76690673828125	-1.52587890625E-07	-1.17020675816093E-07	-5026000	2.92176591756288E-05
1	243	63.7634158390129	0.756683349609375	0.75653076171875	-1.3275146484375E-07	-1.00430568750198E-07	-5698850.5	2.92032909783302E-05
1	244	63.8641238387586	0.746612548828125	0.746551513671875	-1.18103027343749E-07	-8.81699904198285E-08	-6321189	2.9190659915912E-05
1	245	63.9648318385043	0.736541748046875	0.736419677734375	-1.1016845703125E-07	-8.11302172110118E-08	-6684487.5	2.9179165721871E-05
1	246	64.0655398382501	0.726470947265625	0.72637939453125	-1.1138916015625E-07	-8.09107874033543E-08	-6521096	2.91680080408696E-05
1	247	64.1662478379958	0.716400146484375	0.71630859375	-1.220703125E-07	-8.7440007234818E-08	-5868000.5	2.91562537313439E-05
1	248	64.2669558377415	0.706329345703125	0.706268310546875	-1.42517089843749E-07	-1.00655299206664E-07	-4955675	2.91429296339629E-05
1	249	64.3676638374873	0.696258544921875	0.6961669921875	-1.690673828125E-07	-1.17699130441906E-07	-4117689.75	2.91272408503573E-05
1	250	64.468371837233	0.686187744140625	0.68609619140625	-1.98974609374999E-07	-1.36515723170305E-07	-3448159.5	2.9108708986314E-05
1	251	64.5690798369787	0.676116943359375	0.6761474609375	-2.2705078125E-07	-1.53519806644908E-07	-2977957	2.90872558252886E-05
1	252	64.6697878367245	0.666046142578125	0.666015625	-2.4749755859375E-07	-1.64837231864112E-07	-2690998.75	2.90633597614942E-05
1	253	64.7704958364702	0.655975341796875	0.655914306640625	-2.5909423828125E-07	-1.69943618288926E-07	-2531566.5	2.90378520730883E-05
1	254	64.871203836216	0.645904541015625	0.64581298828125	-2.60009765624999E-07	-1.67917676208162E-07	-2483803	2.90117131953593E-05
1	255	64.9719118359617	0.635833740234375	0.635772705078125	-2.5177001953125E-07	-1.60068509558187E-07	-2525212.25	2.89859417534899E-05
1	256	65.0726198357074	0.625762939453125	0.62567138671875	-2.362060546875E-07	-1.47787361015617E-07	-2648837.25	2.89613708446268E-05
1	257	65.1733278354532	0.615692138671875	0.61572265625	-2.15759277343749E-07	-1.32847873146602E-07	-2853748.25	2.8938613468199E-05
1	258	65.2740358351989	0.605621337890625	0.6055908203125	-1.9195556640625E-07	-1.16246525294628E-07	-3154849	2.89180825348012E-05
1	259	65.3747438349446	0.595550537109375	0.5955810546875	-1.66931152343749E-07	-9.94210296312303E-08	-3567824.75	2.8900010875077E-05
1	260	65.4754518346904	0.585479736328125	0.585479736328125	-1.4190673828125E-07	-8.30835205078984E-08	-4125806.5	2.88844603346661E-05
1	261	65.5761598344361	0.575408935546875	0.575408935546875	-1.177978515625E-07	-6.77819329553131E-08	-4884715.5	2.8871383619844E-05
1	262	65.6768678341818	0.565338134765625	0.5653076171875	-9.613037109375E-08	-5.4343232136489E-08	-5880635	2.88606115645962E-05
1	263	65.7775758339276	0.555267333984375	0.555267333984375	-7.69042968749994E-08	-4.27024424709543E-08	-7220238.5	2.88518986053532E-05
1	264	65.8782838336733	0.545196533203125	0.545196533203125	-5.98144531249997E-08	-3.26106324166631E-08	-9114796	2.88450137304608E-05
1	265	65.9789918334191	0.535125732421875	0.535064697265625	-4.39453125000003E-08	-2.35135857451496E-08	-12175694	2.88397895928938E-05
1	266	66.0796998331648	0.525054931640625	0.524993896484375	-2.96020507812494E-08	-1.55408965696324E-08	-17735052	2.88360861304682E-05
1	267	66.1804078329105	0.514984130859375	0.51495361328125	-1.55639648437497E-08	-8.01471955469424E-09	-33086276	2.88338105747243E-05
1	268	66.2811158326563	0.504913330078125	0.504913330078125	-3.0517578125E-09	-1.54087320680674E-09	-165450000	2.88328737951815E-05
1	269	66.381823832402	0.494842529296875	0.494873046875	8.23974609374945E-09	4.07762801302169E-09	60059260	2.88331357296556E-05
1	270	66.4825318321477	0.484771728515625	0.484710693359375	1.92260742187506E-08	9.31908328283271E-09	25211112	2.88345181616023E-05
1	271	66.5832398318935	0.474700927734375	0.47467041015625	2.77709960937497E-08	1.3182070546236E-08	17092308	2.88368846668163E-05
1	272	66.6839478316392	0.464630126953125	0.464599609375	3.63159179687503E-08	1.68723612858912E-08	12793278	2.88401115540182E-05
1	273	66.784655831385	0.454559326171875	0.45458984375	4.39453125000003E-08	1.99770937570065E-08	10344444	2.88441533484729E-05
1	274	66.8853638311307	0.444488525390625	0.44451904296875	5.06591796874997E-08	2.25189697999895E-08	8774699	2.88489172817208E-05
1	275	66.9860718308764	0.434417724609375	0.43438720703125	5.70678710937494E-08	2.4789551744675E-08	7611765	2.88543415081222E-05
1	276	67.0867798306222	0.424346923828125	0.42431640625	6.256103515625E-08	2.65456741033177E-08	6782439	2.88603641820373E-05
1	277	67.1874878303679	0.414276123046875	0.414306640625	6.77490234374994E-08	2.80688698950371E-08	6115315.5	2.88669270958053E-05
1	278	67.2881958301136	0.404205322265625	0.404144287109375	7.14111328125003E-08	2.88604002918191E-08	5659402	2.88739338429878E-05
1	279	67.3889038298594	0.394134521484375	0.39410400390625	7.53784179687494E-08	2.97069355781332E-08	5228340	2.88813243969344E-05
1	280	67.4896118296051	0.384063720703125	0.38409423828125	7.781982421875E-08	2.98901454698353E-08	4935686.5	2.88890387309948E-05
1	281	67.5903198293508	0.373992919921875	0.374053955078125	8.05664062500003E-08	3.01361815502332E-08	4642803.5	2.88970149995293E-05
1	282	67.6910278290966	0.363922119140625	0.36395263671875	8.33129882812506E-08	3.03219813702071E-08	4368498.5	2.89052659354638E-05
1	283	67.7917358288423	0.353851318359375	0.3538818359375	8.544921875E-08	3.02389260298241E-08	4141428.75	2.89137642539572E-05
1	284	67.8924438285881	0.343780517578125	0.343780517578125	8.85009765625E-08	3.04249105909093E-08	3884482.75	2.89225245069247E-05
1	285	67.9931518283338	0.333709716796875	0.333740234375	9.03320312499997E-08	3.0147432994454E-08	3694594.75	2.89315285044722E-05
1	286	68.0938598280795	0.323638916015625	0.3236083984375	9.24682617187506E-08	2.99235054512792E-08	3499670	2.89407325908542E-05
1	287	68.1945678278253	0.313568115234375	0.31353759765625	9.307861328125E-08	2.91836439458848E-08	3368524.75	2.89500767394202E-05
1	288	68.295275827571	0.303497314453125	0.303466796875	9.33837890624997E-08	2.83388796873396E-08	3249673.25	2.89594663627213E-05
1	289	68.3959838273167	0.293426513671875	0.29339599609375	9.36889648437495E-08	2.74879656814164E-08	3131596.25	2.89688850898528E-05
1	290	68.4966918270625	0.283355712890625	0.28338623046875	9.39941406250006E-08	2.6636644889777E-08	3014935.25	2.89783365587937E-05
1	291	68.5973998268082	0.273284912109375	0.273284912109375	9.46044921875E-08	2.58539785136236E-08	2888709.75	2.89878335024696E-05
1	292	68.698107826554	0.263214111328125	0.26318359375	9.42993164062503E-08	2.4818033850238E-08	2790938.5	2.89973449980607E-05
1	293	68.7988158262997	0.253143310546875	0.253204345703125	9.49096679687497E-08	2.40315394250956E-08	2667845.75	2.90068728645565E-05
1	294	68.8995238260454	0.243072509765625	0.243133544921875	9.42993164062503E-08	2.2927327592015E-08	2578317.25	2.90163989120629E-05
1	295	69.0002318257912	0.233001708984375	0.23297119140625	9.27734375000003E-08	2.16135376263082E-08	2511184.25	2.90258194581838E-05
1	296	69.1009398255369	0.222930908203125	0.222930908203125	9.09423828125006E-08	2.02738679178083E-08	2451342.5	2.90350708382903E-05
1	297	69.2016478252826	0.212860107421875	0.21295166015625	8.85009765625E-08	1.88464301942304E-08	2406207	2.90441057586577E-05
1	298	69.3023558250284	0.202789306640625	0.202911376953125	8.51440429687503E-08	1.72766938533186E-08	2383154.25	2.90528496407205E-05
1	299	69.4030638247741	0.192718505859375	0.19268798828125	8.087158203125E-08	1.55829820158715E-08	2382641.5	2.90612097160192E-05
1	300	69.5037718245198	0.182647705078125	0.18267822265625	7.59887695312503E-08	1.3881492400003E-08	2404016.25	2.90691077680094E-05
1	301	69.6044798242656	0.172576904296875	0.172607421875	6.95800781250006E-08	1.20100374090271E-08	2480701.75	2.90764382953057E-05
1	302	69.7051878240113	0.162506103515625	0.1624755859375	6.103515625E-08	9.91672166605895E-09	2662000.25	2.90830139419995E-05
1	303	69.8058958237571	0.152435302734375	0.152496337890625	4.91333007812497E-08	7.4926482795945E-09	3103726.75	2.90885618596803E-05
1	304	69.9066038235028	0.142364501953125	0.142425537109375	3.38745117187497E-08	4.82459538986291E-09	4204504.5	2.90927418973297E-05
1	305	70.0073118232485	0.132293701171875	0.13238525390625	1.220703125E-08	1.61603086468176E-09	10845000	2.90950629278086E-05
1	306	70.1080198229943	0.122222900390625	0.12225341796875	-1.678466796875E-08	-2.05198302793974E-09	-7283636.5	2.90948319161544E-05
1	307	70.20872782274	0.112152099609375	0.112152099609375	-5.645751953125E-08	-6.33182928311271E-09	-1986486.5	2.9091143005644E-05
1	308	70.3094358224857	0.102081298828125	0.1021728515625	-1.08947753906249E-07	-1.1131502830608E-08	-937815.125	2.90828156721545E-05
1	309	70.4101438222315	0.092010498046875	0.092071533203125	-1.80664062499999E-07	-1.66340168306078E-08	-509628.375	2.90682310151169E-05
1	310	70.5108518219772	0.081939697265625	0.08203125	-2.7587890625E-07	-2.26306919870467E-08	-297345.125	2.90452426270349E-05
1	311	70.6115598217229	0.071868896484375	0.0718994140625	-4.01611328125E-07	-2.88756183408623E-08	-179027.359375	2.90111292997608E-05
1	312	70.7122678214687	0.061798095703125	0.0618896484375	-5.60607910156249E-07	-3.46958231034478E-08	-110397.390625	2.89626768790185E-05
1	313	70.8129758212144	0.051727294921875	0.051849365234375	-7.537841796875E-07	-3.9083229097514E-08	-68785.4296875	2.88964929495705E-05
1	314	70.9136838209602	0.041656494140625	0.0417633056640625	-9.735107421875E-07	-4.06570279665175E-08	-42899.6875	2.88095161522506E-05
1	315	71.0143918207059	0.031585693359375	0.0316741943359375	-1.2054443359375E-06	-3.81814757588472E-08	-26275.951171875	2.86997965304181E-05
1	316	71.1150998204516	0.021514892578125	0.0216217041015625	-1.42852783203125E-06	-3.08872039056496E-08	-15135.6552734375	2.8567166737048E-05
1	317	71.2158078201974	0.011444091796875	0.0115478515625	-1.6192626953125E-06	-1.8699005011058E-08	-7131.54931640625	2.84136967820814E-05
1	318	71.3165158199431	0.001373291015625	0.00147094726562499	-1.76116943359375E-06	-2.59058730023298E-09	-835.210571289063	2.82434793916764E-05
1	319	71.4172238196888	-0.008697509765625	-0.0085784912109375	-1.84478759765625E-06	1.58254938043001E-08	4650.1240234375	2.80619042314356E-05
1	320	71.5179318194346	-0.018768310546875	-0.018658447265625	-1.87286376953125E-06	3.49447297764982E-08	9962.5224609375	2.78747065749485E-05
1	321	71.6186398191803	-0.028839111328125	-0.028717041015625	-1.85760498046875E-06	5.33449160400323E-08	15459.17578125	2.76868613582337E-05
1	322	71.7193478189261	-0.038909912109375	-0.038787841796875	-1.8133544921875E-06	7.03361067166952E-08	21390.10546875	2.75020156550454E-05
1	323	71.8200558186718	-0.048980712890625	-0.0488494873046875	-1.7529296875E-06	8.56297077689305E-08	27867.33984375	2.73224377451697E-05
1	324	71.9207638184175	-0.059051513671875	-0.0589599609375	-1.6864013671875E-06	9.94301601053849E-08	34962	2.71492535830475E-05
1	325	72.0214718181633	-0.069122314453125	-0.069122314453125	-1.62017822265625E-06	1.1199046667798E-07	42663.40234375	2.69827542069834E-05
1	326	72.122179817909	-0.079193115234375	-0.079132080078125	-1.55853271484375E-06	1.2332992582742E-07	50773.44921875	2.68226940534078E-05
1	327	72.2228878176547	-0.089263916015625	-0.089141845703125	-1.5032958984375E-06	1.34006569396661E-07	59297.60546875	2.66685183305526E-05
1	328	72.3235958174005	-0.099334716796875	-0.099273681640625	-1.45538330078125E-06	1.44481262509544E-07	68211.3671875	2.6519537641434E-05
1	329	72.4243038171462	-0.109405517578125	-0.109283447265625	-1.41448974609375E-06	1.54580305888885E-07	77259.984375	2.63750280282693E-05
1	330	72.5250118168919	-0.119476318359375	-0.119384765625	-1.38092041015625E-06	1.64860850304649E-07	86453.0390625	2.62342673522653E-05
1	331	72.6257198166377	-0.129547119140625	-0.129486083984375	-1.3531494140625E-06	1.75214012188007E-07	95692.375	2.60965953202685E-05
1	332	72.7264278163834	-0.139617919921875	-0.1395263671875	-1.3311767578125E-06	1.85734251090253E-07	104814.3125	2.59614298556698E-05
1	333	72.8271358161292	-0.149688720703125	-0.1495361328125	-1.31256103515625E-06	1.96275308894656E-07	113926.9921875	2.58283071161713E-05
1	334	72.9278438158749	-0.159759521484375	-0.159637451171875	-1.29791259765625E-06	2.07195455459441E-07	122995.53125	2.56968596659135E-05
1	335	73.0285518156206	-0.169830322265625	-0.16973876953125	-1.2872314453125E-06	2.18493070747172E-07	131863.453125	2.55666873272276E-05
1	336	73.1292598153664	-0.179901123046875	-0.179779052734375	-1.2799072265625E-06	2.30100511089404E-07	140462.5625	2.54374208452646E-05
1	337	73.2299678151121	-0.189971923828125	-0.18988037109375	-1.275634765625E-06	2.42217993218219E-07	148851.671875	2.53087382589001E-05
1	338	73.3306758148578	-0.200042724609375	-0.199859619140625	-1.2750244140625E-06	2.54825891943256E-07	156749.640625	2.51803030550946E-05
1	339	73.4313838146036	-0.189971923828125	-0.189788818359375	-1.11083984375E-06	2.10824964597123E-07	170851.65625	2.5060166080948E-05
2	340	73.5320918143493	-0.179901123046875	-0.17974853515625	-9.9700927734375E-07	1.7921094297435E-07	180287.734375	2.49540262302617E-05
2	341	73.6327998140951	-0.169830322265625	-0.169647216796875	-9.0484619140625E-07	1.53504629452073E-07	187487.359375	2.48582600761438E-05
2	342	73.7335078138408	-0.159759521484375	-0.15966796875	-8.26110839843749E-07	1.31903433953084E-07	193276.703125	2.47710995608941E-05
2	343	73.8342158135865	-0.149688720703125	-0.14959716796875	-7.568359375E-07	1.13220508524137E-07	197661.296875	2.46913932642201E-05
2	344	73.9349238133323	-0.139617919921875	-0.1395263671875	-6.94885253906249E-07	9.69548068496806E-08	200790.53125	2.46182917180704E-05
2	345	74.035631813078	-0.129547119140625	-0.12945556640625	-6.38732910156251E-07	8.26875279358319E-08	202675.59375	2.45511400862597E-05
2	346	74.1363398128237	-0.119476318359375	-0.119384765625	-5.865478515625E-07	7.00248747875776E-08	203537.984375	2.44894417846808E-05
2	347	74.2370478125695	-0.109405517578125	-0.10931396484375	-5.37719726562499E-07	5.87802730933618E-08	203291.71875	2.44328311964637E-05
2	348	74.3377558123152	-0.099334716796875	-0.099334716796875	-4.90417480468749E-07	4.87154778738841E-08	202551.34375	2.43810591200599E-05
2	349	74.4384638120609	-0.089263916015625	-0.08917236328125	-4.41894531250001E-07	3.94047781071549E-08	201795.59375	2.43341146415332E-05
2	350	74.5391718118067	-0.079193115234375	-0.07916259765625	-3.9093017578125E-07	3.09470458148553E-08	202498.0625	2.42921778408345E-05
2	351	74.6398798115524	-0.069122314453125	-0.06903076171875	-3.3416748046875E-07	2.30678356416547E-08	206575.34375	2.42556670855265E-05
2	352	74.7405878112982	-0.059051513671875	-0.058990478515625	-2.6885986328125E-07	1.58601718425189E-08	219409.765625	2.42253008764237E-05
2	353	74.8412958110439	-0.048980712890625	-0.048834228515625	-1.904296875E-07	9.29948651418044E-09	256442.296875	2.4202174245147E-05
2	354	74.9420038107896	-0.038909912109375	-0.038775634765625	-9.33837890624997E-08	3.62101570949847E-09	415228.75	2.41878824454034E-05
2	355	75.0427118105354	-0.028839111328125	-0.0287322998046875	2.77709960937497E-08	-7.97924615270063E-10	-1034615.375	2.41845791606465E-05
2	356	75.1434198102811	-0.018768310546875	-0.018670654296875	1.77917480468751E-07	-3.32183547335774E-09	-104939.96875	2.41949364863103E-05
2	357	75.2441278100268	-0.008697509765625	-0.00856628417968749	3.61328125E-07	-3.09523939812095E-09	-23707.771484375	2.42220903601265E-05
2	358	75.3448358097726	0.001373291015625	0.0014801025390625	5.755615234375E-07	8.51890058495286E-10	2571.580078125	2.42692658503074E-05
2	359	75.4455438095183	0.011444091796875	0.01156005859375	8.11157226562501E-07	9.37702449022026E-09	14251.3173828125	2.43390932155307E-05
2	360	75.546251809264	0.021514892578125	0.021612548828125	1.04949951171875E-06	2.26823591020775E-08	20593.197265625	2.44327839027392E-05
2	361	75.6469598090098	0.031585693359375	0.031683349609375	1.26983642578125E-06	4.02326669757258E-08	24950.732421875	2.45495721173938E-05
2	362	75.7476678087555	0.041656494140625	0.0417694091796875	1.45172119140625E-06	6.06375323286557E-08	28772.3359375	2.46866129600676E-05
2	363	75.8483758085013	0.051727294921875	0.05181884765625	1.57867431640625E-06	8.18050835960094E-08	32824.28125	2.48392061621416E-05
2	364	75.949083808247	0.061798095703125	0.061920166015625	1.64764404296875E-06	1.02022390535694E-07	37581.03515625	2.50016637437511E-05
2	365	76.0497918079927	0.071868896484375	0.0718994140625	1.6650390625E-06	1.19715323876335E-07	43181.8203125	2.51684705290245E-05
2	366	76.1504998077385	0.081939697265625	0.082000732421875	1.644287109375E-06	1.34832745857238E-07	49870.08203125	2.53351081482833E-05
2	367	76.2512078074842	0.092010498046875	0.092010498046875	1.59881591796875E-06	1.471078405757E-07	57549.15234375	2.54984115599655E-05
2	368	76.3519158072299	0.102081298828125	0.1021728515625	1.54052734375E-06	1.5740006631404E-07	66323.296875	2.56564908340806E-05
2	369	76.4526238069757	0.112152099609375	0.112152099609375	1.478271484375E-06	1.65791249173708E-07	75867.0546875	2.58084983215667E-05
2	370	76.5533318067214	0.122222900390625	0.12225341796875	1.417236328125E-06	1.73261980762618E-07	86261.84375	2.59542994172079E-05
2	371	76.6540398064672	0.132293701171875	0.13232421875	1.358642578125E-06	1.797813098392E-07	97394.4296875	2.60940760199446E-05
2	372	76.7547478062129	0.142364501953125	0.142425537109375	1.30584716796875E-06	1.85985982170678E-07	109067.5390625	2.62282428593608E-05
2	373	76.8554558059586	0.152435302734375	0.152435302734375	1.25823974609375E-06	1.91800154425437E-07	121149.6484375	2.63573565462139E-05
2	374	76.9561638057044	0.162506103515625	0.162506103515625	1.2152099609375E-06	1.97479039343307E-07	133726.765625	2.6481904569664E-05
2	375	77.0568718054501	0.172576904296875	0.172607421875	1.1773681640625E-06	2.03222484174148E-07	146604.453125	2.66023798758397E-05
2	376	77.1575798051958	0.182647705078125	0.182647705078125	1.1444091796875E-06	2.09023696129407E-07	159600.015625	2.67192899627844E-05
2	377	77.2582878049416	0.192718505859375	0.1927490234375	1.11572265625E-06	2.15054441810025E-07	172757.109375	2.68330968538066E-05
2	378	77.3589958046873	0.202789306640625	0.202850341796875	1.0894775390625E-06	2.21000902911328E-07	186190.46875	2.69441370619461E-05
2	379	77.459703804433	0.212860107421875	0.212890625	1.0650634765625E-06	2.26742017161996E-07	199885.390625	2.70526270469418E-05
2	380	77.5604118041788	0.222930908203125	0.222930908203125	1.0430908203125E-06	2.32537189504001E-07	213721.46875	2.71587814495433E-05
2	381	77.6611198039245	0.233001708984375	0.2330322265625	1.0235595703125E-06	2.38522346762693E-07	227668.453125	2.72628458333202E-05
2	382	77.7618278036703	0.243072509765625	0.2430419921875	1.005859375E-06	2.44466036747326E-07	241626.234375	2.7365034839022E-05
2	383	77.862535803416	0.253143310546875	0.253204345703125	9.89990234375E-07	2.50669813794957E-07	255764.5	2.74655340035679E-05
2	384	77.9632438031617	0.263214111328125	0.26318359375	9.75341796875E-07	2.56693965638988E-07	269837.3125	2.75644961220678E-05
2	385	78.0639518029075	0.273284912109375	0.27337646484375	9.6282958984375E-07	2.63214928963862E-07	283930.28125	2.76620903605362E-05
2	386	78.1646598026532	0.283355712890625	0.28338623046875	9.51538085937501E-07	2.69652787210362E-07	297819.125	2.77584877039772E-05
2	387	78.2653678023989	0.293426513671875	0.29345703125	9.40856933593751E-07	2.76101076224222E-07	311904	2.78537772828713E-05
2	388	78.3660758021447	0.303497314453125	0.30340576171875	9.3109130859375E-07	2.82498461956493E-07	325860.375	2.79480373137631E-05
2	389	78.4667838018904	0.313568115234375	0.313629150390625	9.2193603515625E-07	2.8914601557517E-07	340185.375	2.80413441942073E-05
2	390	78.5674918016362	0.323638916015625	0.323638916015625	9.1400146484375E-07	2.9580641580651E-07	354090.15625	2.81337906926638E-05
2	391	78.6681998013819	0.333709716796875	0.33367919921875	9.07287597656251E-07	3.02742989788385E-07	367776.65625	2.82255005004117E-05
2	392	78.7689078011276	0.343780517578125	0.34375	9.0179443359375E-07	3.09991833091772E-07	381184.4375	2.83165954897413E-05
2	393	78.8696158008734	0.353851318359375	0.3538818359375	8.9752197265625E-07	3.17616724032632E-07	394287.65625	2.84071975329425E-05
2	394	78.9703238006191	0.363922119140625	0.363922119140625	8.9385986328125E-07	3.25295388847735E-07	407135.53125	2.84974012174644E-05
2	395	79.0710318003648	0.373992919921875	0.3740234375	8.90502929687501E-07	3.33068953750626E-07	420013.71875	2.85872501990525E-05
2	396	79.1717398001106	0.384063720703125	0.38409423828125	8.87451171875001E-07	3.40864886538839E-07	432806.0625	2.86767772195162E-05
2	397	79.2724477998563	0.394134521484375	0.3941650390625	8.85009765625E-07	3.48839904518172E-07	445379.3125	2.87660277535906E-05
2	398	79.373155799602	0.404205322265625	0.404205322265625	8.82873535156251E-07	3.56862159378579E-07	457829.25	2.88550472760107E-05
2	399	79.4738637993478	0.414276123046875	0.414276123046875	8.807373046875E-07	3.64868412816577E-07	470374.25	2.89438521576812E-05
2	400	79.5745717990935	0.424346923828125	0.42437744140625	8.79821777343751E-07	3.73376508377987E-07	482344.78125	2.90325042442419E-05
2	401	79.6752797988393	0.434417724609375	0.4344482421875	8.795166015625E-07	3.82104417440132E-07	493962.5625	2.91210944851628E-05
2	402	79.775987798585	0.444488525390625	0.444488525390625	8.78295898437501E-07	3.90392415283713E-07	506080.625	2.92096065095393E-05
2	403	79.8766957983307	0.454559326171875	0.45458984375	8.77990722656249E-07	3.99125667627231E-07	517761.5625	2.92980421363609E-05
2	404	79.9774037980765	0.464630126953125	0.46453857421875	8.77685546875E-07	4.07718772521548E-07	529276.8125	2.9386448659352E-05
2	405	80.0781117978222	0.474700927734375	0.474700927734375	8.76770019531251E-07	4.16203533859516E-07	541420.125	2.9474791517714E-05
2	406	80.1788197975679	0.484771728515625	0.48480224609375	8.76770019531251E-07	4.25060079578543E-07	552941.1875	2.9563088901341E-05
2	407	80.2795277973137	0.494842529296875	0.494781494140625	8.770751953125E-07	4.3396056526035E-07	564126.625	2.96514026558725E-05
2	408	80.3802357970594	0.504913330078125	0.504913330078125	8.7860107421875E-07	4.43617381051808E-07	574678.75	2.97398073598742E-05
2	409	80.4809437968051	0.514984130859375	0.514984130859375	8.79821777343751E-07	4.53094230579154E-07	585327.8125	2.98283521260601E-05
2	410	80.5816517965509	0.525054931640625	0.524993896484375	8.82568359375E-07	4.6334298531292E-07	594847.875	2.99170951620908E-05
2	411	80.6823597962966	0.535125732421875	0.53509521484375	8.85925292968751E-07	4.74054360211085E-07	603995.875	3.00061456073308E-05
2	412	80.7830677960424	0.545196533203125	0.54522705078125	8.89892578125E-07	4.85193481836177E-07	612688.625	3.00955653074197E-05
2	413	80.8837757957881	0.555267333984375	0.55523681640625	8.94775390624999E-07	4.96812219807907E-07	620532.0625	3.01854306599125E-05
2	414	80.9844837955338	0.565338134765625	0.565338134765625	8.9996337890625E-07	5.0878361435025E-07	628179.0625	3.02758035104489E-05
2	415	81.0851917952796	0.575408935546875	0.575408935546875	9.07287597656251E-07	5.22061384344852E-07	634207.875	3.03668057313189E-05
2	416	81.1858997950253	0.585479736328125	0.58538818359375	9.16442871093751E-07	5.36474829004874E-07	638761.25	3.04586374113569E-05
2	417	81.286607794771	0.595550537109375	0.595550537109375	9.28344726562499E-07	5.52876201709296E-07	641518.75	3.05515313812066E-05
2	418	81.3873157945168	0.605621337890625	0.6055908203125	9.4329833984375E-07	5.71252769532293E-07	641992.9375	3.06457732222043E-05
2	419	81.4880237942625	0.615692138671875	0.61566162109375	9.6160888671875E-07	5.92025685364206E-07	640241.1875	3.07416958094109E-05
2	420	81.5887317940083	0.625762939453125	0.625701904296875	9.85107421875001E-07	6.16383545093413E-07	635161.125	3.08397175103892E-05
2	421	81.689439793754	0.635833740234375	0.6357421875	1.01318359375E-06	6.44123531401419E-07	627469.875	3.09403403662145E-05
2	422	81.7901477934997	0.645904541015625	0.645904541015625	1.048583984375E-06	6.77285129313532E-07	615977.875	3.10441573674325E-05
2	423	81.8908557932455	0.655975341796875	0.655914306640625	1.0894775390625E-06	7.14603913820611E-07	602044.8125	3.11518197122496E-05
2	424	81.9915637929912	0.666046142578125	0.66595458984375	1.13555908203125E-06	7.56230747356312E-07	586455.25	3.12638585455716E-05
2	425	82.0922717927369	0.676116943359375	0.676055908203125	1.1846923828125E-06	8.00918257937155E-07	570659.5	3.13806922349613E-05
2	426	82.1929797924827	0.686187744140625	0.68609619140625	1.23138427734375E-06	8.44847988901165E-07	557174.75	3.15023498842493E-05
2	427	82.2936877922284	0.696258544921875	0.6961669921875	1.27197265625E-06	8.85505414771615E-07	547312.875	3.1628405849915E-05
2	428	82.3943957919741	0.706329345703125	0.706268310546875	1.30401611328125E-06	9.20985257835127E-07	541610.125	3.17581179842819E-05
2	429	82.4951037917199	0.716400146484375	0.716278076171875	1.32720947265625E-06	9.50651042330719E-07	539687.3125	3.18906095344573E-05
2	430	82.5958117914656	0.726470947265625	0.7264404296875	1.34185791015625E-06	9.74779823081917E-07	541369.125	3.20250073855277E-05
2	431	82.6965197912114	0.736541748046875	0.73638916015625	1.35101318359375E-06	9.94871356851945E-07	545064.4375	3.21606057696044E-05
2	432	82.7972277909571	0.746612548828125	0.74658203125	1.35772705078125E-06	1.01365458249347E-06	549876.375	3.22970008710399E-05
2	433	82.8979357907028	0.756683349609375	0.7574462890625	1.36505126953125E-06	1.03395302630815E-06	554884.875	3.2434101740364E-05
2	434	82.9986437904486	0.766754150390625	0.7672119140625	1.37542724609375E-06	1.05524418358982E-06	557799	3.25720975524746E-05
2	435	83.0993517901943	0.776824951171875	0.77667236328125	1.3909912109375E-06	1.08034441836935E-06	558358.9375	3.27113993989769E-05
2	436	83.20005978994	0.786895751953125	0.78704833984375	1.41387939453125E-06	1.11279132397613E-06	556658.8125	3.28526330122259E-05
2	437	83.3007677896858	0.796966552734375	0.797119140625	1.4453125E-06	1.1520862699399E-06	551520.25	3.29966060235165E-05
2	438	83.4014757894315	0.807037353515625	0.80718994140625	1.48895263671875E-06	1.20186757612828E-06	542119.3125	3.31443588947877E-05
2	439	83.5021837891773	0.817108154296875	0.8172607421875	1.54327392578125E-06	1.26125723909354E-06	529563	3.32970412273426E-05
2	440	83.602891788923	0.827178955078125	0.82763671875	1.60980224609375E-06	1.33233140786615E-06	514123.21875	3.34558135364205E-05
2	441	83.7035997886687	0.837249755859375	0.83770751953125	1.6839599609375E-06	1.41066584546934E-06	497462.875	3.3621665352257E-05
2	442	83.8043077884145	0.847320556640625	0.84716796875	1.75933837890625E-06	1.49045513353485E-06	481526.46875	3.3795051422203E-05
2	443	83.9050157881602	0.857391357421875	0.8575439453125	1.82769775390625E-06	1.56733108269691E-06	469193.53125	3.39756734319963E-05
2	444	84.0057237879059	0.867462158203125	0.8673095703125	1.8841552734375E-06	1.63414586040744E-06	460317.46875	3.41625782311894E-05
2	445	84.1064317876517	0.877532958984375	0.8770751953125	1.92169189453125E-06	1.68546819168114E-06	456407.84375	3.43542196787894E-05
2	446	84.2071397873974	0.887603759765625	0.887451171875	1.94061279296875E-06	1.72219904470694E-06	457304.625	3.45487023878377E-05
2	447	84.3078477871431	0.897674560546875	0.8978271484375	1.9427490234375E-06	1.74425269960921E-06	462142.65625	3.47442437487189E-05
2	448	84.4085557868889	0.907745361328125	0.908203125	1.93359375E-06	1.75609579855518E-06	469696.96875	3.49394322256558E-05
2	449	84.5092637866346	0.917816162109375	0.91796875	1.91619873046875E-06	1.75901050170069E-06	479057.1875	3.51332855643705E-05
2	450	84.6099717863804	0.927886962890625	0.92803955078125	1.89422607421875E-06	1.75791660694813E-06	489930.75	3.53251562046353E-05
2	451	84.7106797861261	0.937957763671875	0.93841552734375	1.871337890625E-06	1.75609250163689E-06	501467.71875	3.55147676600609E-05
2	452	84.8113877858718	0.948028564453125	0.9478759765625	1.84906005859375E-06	1.75267962276848E-06	512625.84375	3.57021053787321E-05
2	453	84.9120957856176	0.958099365234375	0.95794677734375	1.82708740234375E-06	1.75025240878313E-06	524302.6875	3.58872130163945E-05
2	454	85.0128037853633	0.968170166015625	0.96832275390625	1.8072509765625E-06	1.7500021840533E-06	535798.75	3.60702142643277E-05
2	455	85.113511785109	0.978240966796875	0.97808837890625	1.788330078125E-06	1.7491447579232E-06	546928.375	3.6251269193599E-05
2	456	85.2142197848548	0.988311767578125	0.98785400390625	1.77093505859375E-06	1.74942522335186E-06	557814.9375	3.64304905815516E-05
2	457	85.3149277846005	0.998382568359375	0.99853515625	1.75506591796875E-06	1.75249499534402E-06	568944.5625	3.66080384992529E-05
2	458	85.4156357843463	1.00845336914063	1.00799560546875	1.74041748046875E-06	1.75433319782314E-06	579168.875	3.67840511898976E-05
2	459	85.516343784092	1.01852416992188	1.01898193359375	1.72760009765625E-06	1.76039327470789E-06	589825.125	3.69586778106168E-05
2	460	85.6170517838377	1.02859497070313	1.0284423828125	1.71630859375E-06	1.76512446614652E-06	599217.625	3.71320929843932E-05
2	461	85.7177597835835	1.03866577148438	1.0382080078125	1.70623779296875E-06	1.7714296518534E-06	608477.9375	3.73044313164428E-05
2	462	85.8184677833292	1.04873657226563	1.04888916015625	1.69677734375E-06	1.7797312921175E-06	618165.5	3.74757873942144E-05
2	463	85.9191757830749	1.05880737304688	1.0589599609375	1.6876220703125E-06	1.78712411980086E-06	627486.4375	3.76462048734538E-05
2	464	86.0198837828207	1.06887817382813	1.06903076171875	1.6790771484375E-06	1.79498499619513E-06	636677.625	3.78157346858643E-05
2	465	86.1205917825664	1.07894897460938	1.07879638671875	1.67266845703125E-06	1.80446863851103E-06	644955.3125	3.79845077986829E-05
2	466	86.2212997823121	1.08901977539063	1.08917236328125	1.6656494140625E-06	1.81417931344185E-06	653902.5625	3.81526042474434E-05
2	467	86.3220077820579	1.09909057617188	1.0986328125	1.66046142578125E-06	1.82423741534876E-06	661643.0625	3.83200858777855E-05
2	468	86.4227157818036	1.10916137695313	1.10931396484375	1.656494140625E-06	1.83757197191881E-06	669675.75	3.84871091227978E-05
2	469	86.5234237815494	1.11923217773438	1.11907958984375	1.6534423828125E-06	1.85033366051357E-06	676818	3.86537794838659E-05
2	470	86.6241317812951	1.12930297851563	1.12884521484375	1.65069580078125E-06	1.86337990726315E-06	683860.25	3.88201551686507E-05
2	471	86.7248397810408	1.13937377929688	1.138916015625	1.649169921875E-06	1.87826606179442E-06	690599.5625	3.89863162126858E-05
2	472	86.8255477807866	1.14944458007813	1.148681640625	1.64825439453125E-06	1.89331956335081E-06	696908	3.91523535654414E-05
2	473	86.9262557805323	1.15951538085938	1.15936279296875	1.64703369140625E-06	1.90950959222391E-06	703909.625	3.93182854168117E-05
2	474	87.026963780278	1.16958618164063	1.16912841796875	1.64642333984375E-06	1.92488028005755E-06	710102	3.9484122680733E-05
2	475	87.1276717800238	1.17965698242188	1.17889404296875	1.64703369140625E-06	1.94167819245195E-06	715768.0625	3.96499635826331E-05
2	476	87.2283797797695	1.18972778320313	1.18988037109375	1.64794921875E-06	1.96086239157012E-06	722037.0625	3.98158772441093E-05
2	477	87.3290877795152	1.19979858398438	1.199951171875	1.65008544921875E-06	1.98002203433134E-06	727205.5	3.99819473386742E-05
2	478	87.429795779261	1.20986938476563	1.2091064453125	1.65313720703125E-06	1.99881878870656E-06	731401.1875	4.01482793677133E-05
2	479	87.5305037790067	1.21994018554688	1.21978759765625	1.656494140625E-06	2.02057094611519E-06	736367	4.03149315388873E-05
2	480	87.6312117787525	1.23001098632813	1.23016357421875	1.65924072265625E-06	2.04113734980638E-06	741401.5625	4.048189293826E-05
2	481	87.7319197784982	1.24008178710938	1.23992919921875	1.663818359375E-06	2.06301706384693E-06	745231.125	4.06492217734922E-05
2	482	87.8326277782439	1.25015258789063	1.2493896484375	1.66748046875E-06	2.08333290174778E-06	749267.9375	4.08169653383084E-05
2	483	87.9333357779897	1.26022338867188	1.2603759765625	1.67266845703125E-06	2.10819098356296E-06	753512.125	4.09851563745178E-05
2	484	88.0340437777354	1.27029418945313	1.27044677734375	1.6790771484375E-06	2.13317798625212E-06	756634	4.11539294873364E-05
2	485	88.1347517774811	1.28036499023438	1.2799072265625	1.68731689453125E-06	2.15960903915402E-06	758545.875	4.13234411098529E-05
2	486	88.2354597772269	1.29043579101563	1.29058837890625	1.69586181640625E-06	2.18865943679702E-06	761022.125	4.14937967434525E-05
2	487	88.3361677769726	1.30050659179688	1.30035400390625	1.705322265625E-06	2.21752270590514E-06	762526.875	4.1665061871754E-05
2	488	88.4368757767184	1.31057739257813	1.309814453125	1.7156982421875E-06	2.24724635700113E-06	763429.375	4.18373238062486E-05
2	489	88.5375837764641	1.32064819335938	1.3201904296875	1.727294921875E-06	2.2803581032349E-06	764311	4.20106916863006E-05
2	490	88.6382917762098	1.33071899414063	1.33056640625	1.7388916015625E-06	2.31371063819097E-06	765180.75	4.21852273575496E-05
2	491	88.7389997759556	1.34078979492188	1.34063720703125	1.7529296875E-06	2.35004267779004E-06	764798.0625	4.23610545112751E-05
2	492	88.8397077757013	1.35086059570313	1.3507080078125	1.76727294921875E-06	2.38706979871495E-06	764289.4375	4.25383113906719E-05
2	493	88.940415775447	1.36093139648438	1.3604736328125	1.78314208984375E-06	2.4259177280328E-06	762964.25	4.271708894521E-05
2	494	89.0411237751928	1.37100219726563	1.3714599609375	1.80145263671875E-06	2.47062007474597E-06	761307.8125	4.28975872637238E-05
2	495	89.1418317749385	1.38107299804688	1.3812255859375	1.82037353515625E-06	2.51434653364413E-06	758759.4375	4.30799591413233E-05
2	496	89.2425397746842	1.39114379882813	1.39129638671875	1.83990478515625E-06	2.55985287367366E-06	756178.5	4.3264270061627E-05
2	497	89.34324777443	1.40121459960938	1.40106201171875	1.8609619140625E-06	2.607323040138E-06	752869.8125	4.34506218880415E-05
2	498	89.4439557741757	1.41128540039063	1.4117431640625	1.88446044921875E-06	2.66037409346609E-06	749149.8125	4.36392219853587E-05
2	499	89.5446637739215	1.42135620117188	1.4215087890625	1.91070556640625E-06	2.71608473667584E-06	743970.625	4.38303213741165E-05
2	500	89.6453717736672	1.43142700195313	1.43157958984375	1.94122314453125E-06	2.77901517620194E-06	737462.75	4.40242838521954E-05
2	501	89.7460797734129	1.44149780273438	1.4410400390625	1.976318359375E-06	2.84795396510162E-06	729153.8125	4.42215459770523E-05
2	502	89.8467877731587	1.45156860351563	1.4520263671875	2.0166015625E-06	2.9281584374985E-06	720036.375	4.44226061517838E-05
2	503	89.9474957729044	1.46163940429688	1.4617919921875	2.06329345703125E-06	3.01610566566524E-06	708475.125	4.46280464529991E-05
2	504	90.0482037726501	1.47171020507813	1.47186279296875	2.11639404296875E-06	3.1150414088188E-06	695457.875	4.48385071649682E-05
2	505	90.1489117723959	1.48178100585938	1.48193359375	2.17620849609375E-06	3.22499636240536E-06	680970.4375	4.50546576757915E-05
2	506	90.2496197721416	1.49185180664063	1.49169921875	2.24395751953125E-06	3.34730952999962E-06	664762.6875	4.52772328571882E-05
2	507	90.3503277718874	1.50192260742188	1.50177001953125	2.320556640625E-06	3.48494245372422E-06	647159.375	4.55070730822627E-05
2	508	90.4510357716331	1.49185180664063	1.49200439453125	2.083740234375E-06	3.10894938593265E-06	716022.3125	4.57288479083218E-05
2	509	90.5517437713788	1.48178100585938	1.48223876953125	1.91253662109375E-06	2.8348358682706E-06	775011.9375	4.59300754300784E-05
2	510	90.6524517711246	1.47171020507813	1.4715576171875	1.77825927734375E-06	2.61681088886689E-06	827527	4.61159215774387E-05
2	511	90.7531597708703	1.46163940429688	1.46148681640625	1.6693115234375E-06	2.4396767912549E-06	875502.75	4.62895222881343E-05
2	512	90.853867770616	1.45156860351563	1.45172119140625	1.57867431640625E-06	2.2917949991097E-06	919582.4375	4.64530712633859E-05
2	513	90.9545757703618	1.44149780273438	1.44134521484375	1.50177001953125E-06	2.16456896851014E-06	959764.3125	4.66081837657839E-05
2	514	91.0552837701075	1.43142700195313	1.43096923828125	1.43585205078125E-06	2.05466017177969E-06	996599.375	4.67561039840803E-05
2	515	91.1559917698532	1.42135620117188	1.4215087890625	1.37847900390625E-06	1.9595199773903E-06	1031215.4375	4.68978178105317E-05
2	516	91.256699769599	1.41128540039063	1.41082763671875	1.3287353515625E-06	1.87461648692988E-06	1061782.375	4.70341365144122E-05
2	517	91.3574077693447	1.40121459960938	1.4013671875	1.28509521484375E-06	1.8008902316069E-06	1090477.375	4.71657513116952E-05
2	518	91.4581157690905	1.39114379882813	1.39129638671875	1.2469482421875E-06	1.73487444499187E-06	1115761.25	4.72932515549473E-05
2	519	91.5588237688362	1.38107299804688	1.3812255859375	1.2139892578125E-06	1.67679297646828E-06	1137757.75	4.74171683890745E-05
2	520	91.6595317685819	1.37100219726563	1.370849609375	1.18408203125E-06	1.6231982726822E-06	1157732	4.75379201816395E-05
2	521	91.7602397683277	1.36093139648438	1.36077880859375	1.1566162109375E-06	1.57389888499893E-06	1176517.125	4.76557834190316E-05
2	522	91.8609477680734	1.35086059570313	1.35101318359375	1.1309814453125E-06	1.52797088048828E-06	1194549.375	4.77709727420006E-05
2	523	91.9616557678191	1.34078979492188	1.3409423828125	1.10809326171875E-06	1.48588912907144E-06	1210135	4.788372098119E-05
2	524	92.0623637675649	1.33071899414063	1.33087158203125	1.08673095703125E-06	1.44629927945061E-06	1224656.125	4.79942391393706E-05
2	525	92.1630717673106	1.32064819335938	1.32080078125	1.06719970703125E-06	1.40955819460942E-06	1237632.25	4.81026982015464E-05
2	526	92.2637797670563	1.31057739257813	1.31072998046875	1.0491943359375E-06	1.37521044507594E-06	1249272.875	4.82092655147426E-05
2	527	92.3644877668021	1.30050659179688	1.30096435546875	1.03271484375E-06	1.3435252412819E-06	1259751.75	4.83141011500265E-05
2	528	92.4651957665478	1.29043579101563	1.290283203125	1.01654052734375E-06	1.31162516936456E-06	1269288.5	4.84172887809109E-05
2	529	92.5659037662936	1.28036499023438	1.2799072265625	1.0015869140625E-06	1.28193823911715E-06	1277879.5	4.85189084429294E-05
2	530	92.6666117660393	1.27029418945313	1.270751953125	9.86633300781251E-07	1.25376618598239E-06	1287967.875	4.86190219817217E-05
2	531	92.767319765785	1.26022338867188	1.26007080078125	9.722900390625E-07	1.22515416478564E-06	1295982.5	4.87176621390972E-05
2	532	92.8680277655308	1.25015258789063	1.25	9.57641601562501E-07	1.19705191536923E-06	1305290.125	4.88148434669711E-05
2	533	92.9687357652765	1.24008178710938	1.23992919921875	9.43603515624999E-07	1.17000149657542E-06	1314036.25	4.89105768792797E-05
2	534	93.0694437650222	1.23001098632813	1.23016357421875	9.295654296875E-07	1.14351757929398E-06	1323374.875	4.90048987558112E-05
2	535	93.170151764768	1.21994018554688	1.2200927734375	9.17663574218749E-07	1.11963470317278E-06	1329564.375	4.90979145979509E-05
2	536	93.2708597645137	1.20986938476563	1.209716796875	9.0606689453125E-07	1.09608436105191E-06	1335129.75	4.91897480969783E-05
2	537	93.3715677642595	1.19979858398438	1.199951171875	8.94775390624999E-07	1.07368680346553E-06	1341064.125	4.92804247187451E-05
2	538	93.4722757640052	1.18972778320313	1.1895751953125	8.837890625E-07	1.05133347005903E-06	1345994.5	4.9369984481018E-05
2	539	93.5729837637509	1.17965698242188	1.17950439453125	8.72192382812501E-07	1.02875469565333E-06	1352344.375	4.94584055559244E-05
2	540	93.6736917634967	1.16958618164063	1.16973876953125	8.60595703125E-07	1.00667216429429E-06	1359219.875	4.95456588396337E-05
2	541	93.7743997632424	1.15951538085938	1.1590576171875	8.50524902343749E-07	9.85807332654076E-07	1362755.625	4.96318207297008E-05
2	542	93.8751077629881	1.14944458007813	1.14898681640625	8.40148925781251E-07	9.65320055001939E-07	1367599	4.97169530717656E-05
2	543	93.9758157627339	1.13937377929688	1.1395263671875	8.30078125E-07	9.45895862969337E-07	1372794.25	4.98010558658279E-05
2	544	94.0765237624796	1.12930297851563	1.12945556640625	8.20312500000001E-07	9.26506515952497E-07	1376860.125	4.98841582157183E-05
2	545	94.1772317622253	1.11923217773438	1.11907958984375	8.1207275390625E-07	9.08774040908611E-07	1378053.375	4.99663547088858E-05
2	546	94.2779397619711	1.10916137695313	1.10870361328125	8.03222656249999E-07	8.90535829967121E-07	1380319.25	5.00476926390547E-05
2	547	94.3786477617168	1.09909057617188	1.0986328125	7.9376220703125E-07	8.72053192324529E-07	1384083.125	5.01281065226067E-05
2	548	94.4793557614626	1.08901977539063	1.0888671875	7.843017578125E-07	8.54000404615363E-07	1388326.875	5.02075672557112E-05
2	549	94.5800637612083	1.07894897460938	1.07879638671875	7.74230957031249E-07	8.35237528917787E-07	1393378	5.02860457345378E-05
2	550	94.680771760954	1.06887817382813	1.06842041015625	7.6416015625E-07	8.16444241991121E-07	1398163	5.03635092172772E-05
2	551	94.7814797606998	1.05880737304688	1.05865478515625	7.54394531249999E-07	7.98643384314346E-07	1403317.125	5.04399758938234E-05
2	552	94.8821877604455	1.04873657226563	1.048583984375	7.4493408203125E-07	7.81125947924011E-07	1407619.875	5.0515474868007E-05
2	553	94.9828957601912	1.03866577148438	1.038818359375	7.354736328125E-07	7.64023525334778E-07	1412448.125	5.05900170537643E-05
2	554	95.083603759937	1.02859497070313	1.02874755859375	7.25402832031249E-07	7.46256375805388E-07	1418174.25	5.06635769852437E-05
2	555	95.1843117596827	1.01852416992188	1.0186767578125	7.1441650390625E-07	7.27759470464662E-07	1425886.375	5.07360782648902E-05
2	556	95.2850197594285	1.00845336914063	1.00830078125	7.02514648437499E-07	7.08346021838224E-07	1435273.75	5.08074263052549E-05
2	557	95.3857277591742	0.998382568359375	0.99884033203125	6.9000244140625E-07	6.89202238390862E-07	1447589.625	5.08775447087828E-05
2	558	95.4864357589199	0.988311767578125	0.9881591796875	6.77490234375E-07	6.6946819288205E-07	1458558.625	5.09464043716434E-05
2	559	95.5871437586657	0.978240966796875	0.9783935546875	6.634521484375E-07	6.4911728259176E-07	1474701.125	5.10139252583031E-05
2	560	95.6878517584114	0.968170166015625	0.96832275390625	6.49108886718749E-07	6.28546899861249E-07	1491772.5	5.10800200572703E-05
2	561	95.7885597581571	0.958099365234375	0.95794677734375	6.3323974609375E-07	6.06609944497905E-07	1512771.125	5.11445905431174E-05
2	562	95.8892677579029	0.948028564453125	0.94818115234375	6.15539550781249E-07	5.83642986384802E-07	1540406.625	5.1207473006798E-05
2	563	95.9899757576486	0.937957763671875	0.9381103515625	5.9326171875E-07	5.56544932805991E-07	1581275.75	5.12683400302194E-05
2	564	96.0906837573943	0.927886962890625	0.9283447265625	5.6640625E-07	5.2582026910386E-07	1639008.625	5.1326733228052E-05
2	565	96.1913917571401	0.917816162109375	0.9185791015625	5.322265625E-07	4.88892169414612E-07	1725917.5	5.13820559717715E-05
2	566	96.2920997568858	0.907745361328125	0.9075927734375	4.8980712890625E-07	4.4454540670813E-07	1852959.5	5.14335188199766E-05
2	567	96.3928077566316	0.897674560546875	0.89813232421875	4.35485839843749E-07	3.91123876397614E-07	2062368.75	5.1480110414559E-05
2	568	96.4935157563773	0.887603759765625	0.887451171875	3.6956787109375E-07	3.27973424418815E-07	2401321.25	5.15206484124064E-05
2	569	96.594223756123	0.877532958984375	0.877685546875	2.9144287109375E-07	2.5579518592167E-07	3011518.5	5.15539322805125E-05
2	570	96.6949317558688	0.867462158203125	0.867919921875	2.032470703125E-07	1.76402181750746E-07	4270270.5	5.15788415214047E-05
2	571	96.7956397556145	0.857391357421875	0.8575439453125	1.09252929687501E-07	9.3689187963264E-08	7849162	5.15945757797454E-05
2	572	96.8963477553602	0.847320556640625	0.84747314453125	1.80053710937503E-08	1.52590686752774E-08	47067796	5.16009858984035E-05
2	573	96.997055755106	0.837249755859375	0.83740234375	-6.37817382812503E-08	-5.34109716454623E-08	-13129188	5.15986794198398E-05
2	574	97.0977637548517	0.827178955078125	0.82763671875	-1.28173828125E-07	-1.06081365913724E-07	-6457143	5.15890133101493E-05
2	575	97.1984717545974	0.817108154296875	0.81756591796875	-1.72119140625E-07	-1.40718739771728E-07	-4750000.5	5.1573893870227E-05
2	576	97.2991797543432	0.807037353515625	0.8074951171875	-1.96228027343751E-07	-1.58453175913564E-07	-4115085.5	5.15553474542685E-05
2	577	97.3998877540889	0.796966552734375	0.797119140625	-2.05078124999999E-07	-1.63471696623674E-07	-3886904.75	5.15351384819951E-05
2	578	97.5005957538347	0.786895751953125	0.787353515625	-2.02331542968751E-07	-1.59306438263229E-07	-3891403	5.15146239195019E-05
2	579	97.6013037535804	0.776824951171875	0.77728271484375	-1.934814453125E-07	-1.50389780628757E-07	-4017350.25	5.14946914336178E-05
2	580	97.7020117533261	0.766754150390625	0.7666015625	-1.82495117187501E-07	-1.39901032980561E-07	-4200669	5.14757630298845E-05
2	581	97.8027197530719	0.756683349609375	0.7568359375	-1.7242431640625E-07	-1.30496914607647E-07	-4389381	5.14578896400053E-05
2	582	97.9034277528176	0.746612548828125	0.74652099609375	-1.66015625E-07	-1.23934142948201E-07	-4496691	5.14408493472729E-05
2	583	98.0041357525633	0.736541748046875	0.7364501953125	-1.6510009765625E-07	-1.2158798767814E-07	-4460628.5	5.14241764904E-05
2	584	98.1048437523091	0.726470947265625	0.726348876953125	-1.7059326171875E-07	-1.23910211868861E-07	-4257782	5.14072708028834E-05
2	585	98.2055517520548	0.716400146484375	0.716339111328125	-1.85241699218749E-07	-1.32695859633714E-07	-3867051.25	5.13893537572585E-05
2	586	98.3062597518006	0.706329345703125	0.70623779296875	-2.0782470703125E-07	-1.46773658116217E-07	-3398238	5.13695595145691E-05
2	587	98.4069677515463	0.696258544921875	0.696197509765625	-2.3651123046875E-07	-1.64658530366069E-07	-2943613	5.13471859449055E-05
2	588	98.507675751292	0.686187744140625	0.686126708984375	-2.69470214843751E-07	-1.84890708965213E-07	-2546206.25	5.13217091793194E-05
2	589	98.6083837510378	0.676116943359375	0.676055908203125	-3.0181884765625E-07	-2.04046401108826E-07	-2239939.5	5.12929436808918E-05
2	590	98.7090917507835	0.666046142578125	0.66595458984375	-3.28674316406249E-07	-2.18882163949274E-07	-2026183.875	5.12611950398423E-05
2	591	98.8097997505292	0.655975341796875	0.65594482421875	-3.466796875E-07	-2.27402750851979E-07	-1892077.5	5.12271872139536E-05
2	592	98.910507750275	0.645904541015625	0.6458740234375	-3.53393554687501E-07	-2.28247714062491E-07	-1827633.875	5.11919351993129E-05
2	593	99.0112157500207	0.635833740234375	0.6357421875	-3.48815917968751E-07	-2.2175699143645E-07	-1822572.125	5.11565776832867E-05
2	594	99.1119237497664	0.625762939453125	0.625732421875	-3.36608886718751E-07	-2.10627092656068E-07	-1858930.25	5.11220641783439E-05
2	595	99.2126317495122	0.615692138671875	0.615692138671875	-3.18298339843751E-07	-1.95973782979308E-07	-1934324.125	5.10890859004576E-05
2	596	99.3133397492579	0.605621337890625	0.6055908203125	-2.96936035156251E-07	-1.79821739720865E-07	-2039465.5	5.10581048729364E-05
2	597	99.4140477490037	0.595550537109375	0.59552001953125	-2.74047851562501E-07	-1.63200965630494E-07	-2173051.25	5.10293539264239E-05
2	598	99.5147557487494	0.585479736328125	0.585418701171875	-2.51159667968751E-07	-1.47033560438103E-07	-2330862.75	5.10029094584752E-05
2	599	99.6154637484951	0.575408935546875	0.5753173828125	-2.288818359375E-07	-1.31679698256448E-07	-2513600	5.09787350893021E-05
2	600	99.7161717482409	0.565338134765625	0.565399169921875	-2.0721435546875E-07	-1.17158826640207E-07	-2728571.5	5.09567762492225E-05
2	601	99.8168797479866	0.555267333984375	0.55523681640625	-1.86767578124999E-07	-1.03700237730209E-07	-2972875.75	5.09369383507874E-05
2	602	99.9175877477323	0.545196533203125	0.545135498046875	-1.68762207031251E-07	-9.19982667824115E-08	-3230199	5.09190358570777E-05
2	603	100.018295747478	0.535125732421875	0.53509521484375	-1.513671875E-07	-8.09958606851069E-08	-3535080.5	5.09029159729835E-05
2	604	100.119003747224	0.525054931640625	0.525054931640625	-1.36718750000001E-07	-7.17848536169186E-08	-3840401.75	5.08884113514796E-05
2	605	100.21971174697	0.514984130859375	0.514862060546875	-1.2481689453125E-07	-6.42634816472309E-08	-4124939	5.08752418681979E-05
2	606	100.320419746715	0.504913330078125	0.504913330078125	-1.1444091796875E-07	-5.77827421466282E-08	-4412000	5.08631928823888E-05
2	607	100.421127746461	0.494842529296875	0.494842529296875	-1.04675292968751E-07	-5.1797783839902E-08	-4727405.5	5.08521588926669E-05
2	608	100.521835746207	0.484771728515625	0.484771728515625	-9.613037109375E-08	-4.66012863853393E-08	-5042857	5.0842048949562E-05
2	609	100.622543745952	0.474700927734375	0.474761962890625	-8.81958007812503E-08	-4.18720098593894E-08	-5383045	5.08327684656251E-05
2	610	100.723251745698	0.464630126953125	0.464599609375	-8.02612304687506E-08	-3.72893360633952E-08	-5788593	5.0824284699047E-05
2	611	100.823959745444	0.454559326171875	0.454620361328125	-7.35473632812497E-08	-3.34361267562144E-08	-6181328	5.08165394421667E-05
2	612	100.92466774519	0.444488525390625	0.44451904296875	-6.7138671875E-08	-2.98444184920754E-08	-6620909	5.08094562974293E-05
2	613	101.025375744935	0.434417724609375	0.434356689453125	-6.13403320312497E-08	-2.66435833395917E-08	-7081094.5	5.08029879711103E-05
2	614	101.126083744681	0.424346923828125	0.424285888671875	-5.61523437500003E-08	-2.38246453676538E-08	-7555978.5	5.07970689795911E-05
2	615	101.226791744427	0.414276123046875	0.414306640625	-5.21850585937497E-08	-2.16206164083133E-08	-7939181.5	5.07916156493593E-05
2	616	101.327499744173	0.404205322265625	0.40423583984375	-4.8828125E-08	-1.97380778388379E-08	-8278750	5.0786529754987E-05
2	617	101.428207743918	0.394134521484375	0.3941650390625	-4.51660156250006E-08	-1.78028631836469E-08	-8727027	5.0781796744559E-05
2	618	101.528915743664	0.384063720703125	0.384002685546875	-4.15039062499997E-08	-1.59376121189325E-08	-9252206	5.07774311699905E-05
2	619	101.62962374341	0.373992919921875	0.37396240234375	-3.72314453124994E-08	-1.39231604023848E-08	-10044262	5.07734657730907E-05
2	620	101.730331743156	0.363922119140625	0.3638916015625	-3.35693359375E-08	-1.22155991988393E-08	-10840000	5.07699005538598E-05
2	621	101.831039742901	0.353851318359375	0.3538818359375	-2.96020507812494E-08	-1.04756283647589E-08	-11954639	5.07667209603824E-05
2	622	101.931747742647	0.343780517578125	0.34381103515625	-2.62451171874997E-08	-9.02336072527987E-09	-13100000	5.07639088027645E-05
2	623	102.032455742393	0.333709716796875	0.333709716796875	-2.31933593749997E-08	-7.7398487619007E-09	-14388159	5.07614204252604E-05
2	624	102.133163742139	0.323638916015625	0.3236083984375	-2.07519531250006E-08	-6.71550637321161E-09	-15594118	5.07592048961669E-05
2	625	102.233871741884	0.313568115234375	0.313568115234375	-1.92260742187506E-08	-6.02868333032802E-09	-16309525	5.07571930938866E-05
2	626	102.33457974163	0.303497314453125	0.303497314453125	-1.80053710937503E-08	-5.46458167605124E-09	-16855932	5.07553195348009E-05
2	627	102.435287741376	0.293426513671875	0.29345703125	-1.73950195312494E-08	-5.10469044812112E-09	-16870176	5.07535369251855E-05
2	628	102.535995741121	0.283355712890625	0.2833251953125	-1.58691406249994E-08	-4.49612747033257E-09	-17853846	5.07518598169554E-05
2	629	102.636703740867	0.273284912109375	0.273284912109375	-1.52587890625E-08	-4.16999634822446E-09	-17910002	5.07502954860684E-05
2	630	102.737411740613	0.263214111328125	0.263214111328125	-1.43432617187494E-08	-3.77534892237463E-09	-18351064	5.07488039147574E-05
2	631	102.838119740359	0.253143310546875	0.253143310546875	-1.49536132812503E-08	-3.78540709888853E-09	-16928572	5.07473268953618E-05
2	632	102.938827740104	0.243072509765625	0.24310302734375	-1.70898437499997E-08	-4.15459222580239E-09	-14225001	5.07457152707502E-05
2	633	103.03953573985	0.233001708984375	0.2330322265625	-1.95312500000003E-08	-4.55141035970996E-09	-11931250	5.0743870815495E-05
2	634	103.140243739596	0.222930908203125	0.222991943359375	-2.25830078125003E-08	-5.03582864297414E-09	-9874324	5.07417498738505E-05
2	635	103.240951739342	0.212860107421875	0.212890625	-2.593994140625E-08	-5.52237011675061E-09	-8207059.5	5.07393051520921E-05
2	636	103.341659739087	0.202789306640625	0.202789306640625	-2.96020507812494E-08	-6.0029794468619E-09	-6850515.5	5.07365111843683E-05
2	637	103.442367738833	0.192718505859375	0.192718505859375	-3.38745117187497E-08	-6.52824505564809E-09	-5689189.5	5.07333134009968E-05
2	638	103.543075738579	0.182647705078125	0.1827392578125	-3.90625000000006E-08	-7.13825221154707E-09	-4678125	5.07296390424017E-05
2	639	103.643783738325	0.172576904296875	0.172607421875	-4.54711914062503E-08	-7.84866482916868E-09	-3795973.25	5.07253826071974E-05
2	640	103.74449173807	0.162506103515625	0.16253662109375	-5.46264648437503E-08	-8.87880080568948E-09	-2975419	5.07203440065496E-05
2	641	103.845199737816	0.152435302734375	0.15252685546875	-6.59179687499997E-08	-1.00542605352416E-08	-2313889	5.07142722199205E-05
2	642	103.945907737562	0.142364501953125	0.1424560546875	-8.11767578124997E-08	-1.15641203279893E-08	-1754887.25	5.07068652950693E-05
2	643	104.046615737308	0.132293701171875	0.13232421875	-1.0101318359375E-07	-1.33664901369457E-08	-1309969.875	5.06976939504966E-05
2	644	104.147323737053	0.122222900390625	0.122283935546875	-1.28173828125E-07	-1.56735993073198E-08	-954047.625	5.06861542817205E-05
2	645	104.248031736799	0.112152099609375	0.11224365234375	-1.6510009765625E-07	-1.85314377176837E-08	-679852.1875	5.06713840877637E-05
2	646	104.348739736545	0.102081298828125	0.102142333984375	-2.1484375E-07	-2.19446416593883E-08	-475426.125	5.06522519572172E-05
2	647	104.44944773629	0.092010498046875	0.092041015625	-2.825927734375E-07	-2.60101256088774E-08	-325701.96875	5.06272044731304E-05
2	648	104.550155736036	0.081939697265625	0.082000732421875	-3.7567138671875E-07	-3.08053280662079E-08	-218277.828125	5.0594058848219E-05
2	649	104.650863735782	0.071868896484375	0.071929931640625	-4.98352050781251E-07	-3.58464298244598E-08	-144335.578125	5.05500502185896E-05
2	650	104.751571735528	0.061798095703125	0.061859130859375	-6.55212402343749E-07	-4.05308675510696E-08	-94410.8125	5.04919626109768E-05
2	651	104.852279735273	0.051727294921875	0.05181884765625	-8.45947265625E-07	-4.38360103771629E-08	-61255.4140625	5.0416372687323E-05
2	652	104.952987735019	0.041656494140625	0.0417724609375	-1.06231689453125E-06	-4.43755929779854E-08	-39322.03515625	5.03202827530913E-05
2	653	105.053695734765	0.031585693359375	0.0316650390625	-1.29241943359375E-06	-4.09245082266807E-08	-24500.591796875	5.02017137478106E-05
2	654	105.154403734511	0.021514892578125	0.02158203125	-1.51458740234375E-06	-3.26878719647539E-08	-14249.447265625	5.00603709951974E-05
2	655	105.255111734256	0.011444091796875	0.0115325927734375	-1.70745849609375E-06	-1.9691421826451E-08	-6754.2451171875	4.98981280543376E-05
2	656	105.355819734002	0.001373291015625	0.00145263671875	-1.8524169921875E-06	-2.69088884508051E-09	-784.184509277344	4.97188739245757E-05
2	657	105.456527733748	-0.008697509765625	-0.00858459472656251	-1.94000244140625E-06	1.6654134071814E-08	4425.04296875	4.95279091410339E-05
2	658	105.557235733494	-0.018768310546875	-0.0186614990234375	-1.973876953125E-06	3.68355017599242E-08	9454.2373046875	4.93308289151173E-05
2	659	105.657943733239	-0.028839111328125	-0.0287261962890625	-1.9635009765625E-06	5.64039090988899E-08	14630.0908203125	4.91325663460884E-05
2	660	105.758651732985	-0.038909912109375	-0.0387847900390625	-1.92291259765625E-06	7.45797592571762E-08	20169.814453125	4.89368721900973E-05
2	661	105.859359732731	-0.048980712890625	-0.0488037109375	-1.86553955078125E-06	9.10452513380733E-08	26160.640625	4.87461074953899E-05
2	662	105.960067732477	-0.059051513671875	-0.05902099609375	-1.8017578125E-06	1.0634153824185E-07	32757.453125	4.85614436911419E-05
2	663	106.060775732222	-0.069122314453125	-0.069061279296875	-1.73797607421875E-06	1.20026854233402E-07	39736.61328125	4.83832045574673E-05
2	664	106.161483731968	-0.079193115234375	-0.079132080078125	-1.678466796875E-06	1.32820574094694E-07	47145.453125	4.82111718156375E-05
2	665	106.262191731714	-0.089263916015625	-0.089202880859375	-1.62567138671875E-06	1.45014567465296E-07	54871.4140625	4.80447961308528E-05
2	666	106.362899731459	-0.099334716796875	-0.0992431640625	-1.58050537109375E-06	1.56854355282121E-07	62792.046875	4.78833535453305E-05
2	667	106.463607731205	-0.109405517578125	-0.109375	-1.5411376953125E-06	1.68561925306676E-07	70970.296875	4.77261637570336E-05
2	668	106.564315730951	-0.119476318359375	-0.119415283203125	-1.5093994140625E-06	1.8024535108907E-07	79114.4375	4.75725573778618E-05
2	669	106.665023730697	-0.129547119140625	-0.12939453125	-1.48193359375E-06	1.91754097045305E-07	87314.6640625	4.74219341413118E-05
2	670	106.765731730442	-0.139617919921875	-0.1395263671875	-1.45965576171875E-06	2.03660462716471E-07	95588.5390625	4.72738101962022E-05
2	671	106.866439730188	-0.149688720703125	-0.1495361328125	-1.44195556640625E-06	2.15624453403507E-07	103703.703125	4.71277053293306E-05
2	672	106.967147729934	-0.159759521484375	-0.159637451171875	-1.4288330078125E-06	2.28095260013106E-07	111725.7578125	4.6983146603452E-05
2	673	107.06785572968	-0.169830322265625	-0.169677734375	-1.4190673828125E-06	2.40784117977455E-07	119569.8984375	4.68397447548341E-05
2	674	107.168563729425	-0.179901123046875	-0.179718017578125	-1.4141845703125E-06	2.54154457479672E-07	127082.4375	4.66970777779352E-05
2	675	107.269271729171	-0.189971923828125	-0.1898193359375	-1.412353515625E-06	2.68092009036991E-07	134399.3125	4.65547527710441E-05
2	676	107.369979728917	-0.200042724609375	-0.199920654296875	-1.414794921875E-06	2.82846713162144E-07	141307.171875	4.64123950223438E-05
2	677	107.470687728663	-0.189971923828125	-0.189788818359375	-1.2371826171875E-06	2.34803422927143E-07	153404.046875	4.62788557342719E-05
