Potential - Start -0.2 V, Upper Vertex 1.5 V, Lower Vertex -0.2 V, Stop -0.19 V; Scan - # end cross 5, Rate 0.1 Vps, Step 0.01 V 
Scan	Index	Time (s)	Potential applied (V)	WE(1).Potential (V)	WE(1).Current (A)	WE(1).Power (W)	WE(1).Resistance (Ω)	WE(1).Charge (C)
1	1	66.2765768326677	-0.189971923828125	-0.189849853515625	-2.14233398437499E-07	4.06721802903576E-08	886182.375	0
1	2	66.3772848324135	-0.179901123046875	-0.1798095703125	-1.7974853515625E-07	3.23205036067975E-08	1000339.625	-1.98385663452427E-08
1	3	66.4779928321592	-0.169830322265625	-0.169708251953125	-1.51977539062501E-07	2.57918415513814E-08	1116666.75	-3.65422998527265E-08
1	4	66.5787008319049	-0.159759521484375	-0.15966796875	-1.2847900390625E-07	2.05139816245037E-08	1242755.375	-5.06644077802321E-08
1	5	66.6794088316507	-0.149688720703125	-0.1495361328125	-1.07727050781251E-07	1.61090856209967E-08	1388102	-6.25583282953812E-08
1	6	66.7801168313964	-0.139617919921875	-0.139495849609375	-8.81958007812503E-08	1.23029479937031E-08	1581661	-7.24238233829055E-08
1	7	66.8808248311421	-0.129547119140625	-0.12945556640625	-6.866455078125E-08	8.88900775208867E-09	1885333.375	-8.03223727530167E-08
1	8	66.9815328308879	-0.119476318359375	-0.11932373046875	-4.94384765624994E-08	5.89918336402206E-09	2413580.25	-8.62693312342344E-08
1	9	67.0822408306336	-0.109405517578125	-0.10931396484375	-2.86865234375003E-08	3.13583758959624E-09	3810638.25	-9.02032368799155E-08
1	10	67.1829488303794	-0.099334716796875	-0.099273681640625	-5.18798828124945E-09	5.15030684766771E-10	19135294	-9.19089515605265E-08
1	11	67.2836568301251	-0.089263916015625	-0.089202880859375	2.19726562499994E-08	-1.96002414298846E-09	-4059722.5	-9.10637822926219E-08
1	12	67.3843648298708	-0.079193115234375	-0.079132080078125	5.43212890625006E-08	-4.29855662176237E-09	-1456741.625	-8.72220766723331E-08
1	13	67.4850728296166	-0.069122314453125	-0.06903076171875	9.46044921875E-08	-6.53062004474236E-09	-729677.4375	-7.97230654825398E-08
1	14	67.5857808293623	-0.059051513671875	-0.0589599609375	1.48620605468749E-07	-8.76266437188633E-09	-396714.59375	-6.74757103524826E-08
1	15	67.686488829108	-0.048980712890625	-0.0487823486328125	2.2003173828125E-07	-1.07336646237854E-08	-221705.96875	-4.89125895342113E-08
1	16	67.7871968288538	-0.038909912109375	-0.0387542724609375	3.1463623046875E-07	-1.21934977670435E-08	-123171.6796875	-2.19899192188677E-08
1	17	67.8879048285995	-0.028839111328125	-0.0286834716796875	4.3792724609375E-07	-1.25612737988945E-08	-65498.26171875	1.59046606995616E-08
1	18	67.9886128283453	-0.018768310546875	-0.0186553955078125	5.9326171875E-07	-1.10675308917507E-08	-31445.474609375	6.78291485201044E-08
1	19	68.089320828091	-0.008697509765625	-0.0085784912109375	7.79113769531251E-07	-6.68362076794438E-09	-11010.576171875	1.36933735461753E-07
1	20	68.1900288278367	0.001373291015625	0.00151977539062501	9.88159179687501E-07	1.50177992264133E-09	1537.98645019531	2.25923002972195E-07
1	21	68.2907368275825	0.011444091796875	0.0115631103515625	1.20819091796875E-06	1.3970443468736E-08	9570.5986328125	3.36518013455134E-07
1	22	68.3914448273282	0.021514892578125	0.0216461181640625	1.41845703125E-06	3.07040863845032E-08	15260.3271484375	4.68780228857213E-07
1	23	68.4921528270739	0.031585693359375	0.031719970703125	1.5985107421875E-06	5.07047133169181E-08	19843.453125	6.20696653186315E-07
1	24	68.5928608268197	0.041656494140625	0.0417449951171875	1.7333984375E-06	7.23607129771153E-08	24082.74609375	7.88471595569717E-07
1	25	68.6935688265654	0.051727294921875	0.051788330078125	1.81365966796875E-06	9.39264026555975E-08	28554.6015625	9.67080154623545E-07
1	26	68.7942768263111	0.061798095703125	0.061859130859375	1.84234619140625E-06	1.13965931802795E-07	33576.28125	1.15117461518821E-06
1	27	68.8949848260569	0.071868896484375	0.071868896484375	1.8292236328125E-06	1.31464275909821E-07	39289.2890625	1.33605283281213E-06
1	28	68.9956928258026	0.081939697265625	0.082000732421875	1.7877197265625E-06	1.46594331340566E-07	45868.8984375	1.51818039739737E-06
1	29	69.0964008255484	0.092010498046875	0.09210205078125	1.729736328125E-06	1.59312250502808E-07	53246.296875	1.69529846516525E-06
1	30	69.1971088252941	0.102081298828125	0.1021728515625	1.66473388671875E-06	1.70090601159245E-07	61374.88671875	1.86622355613508E-06
1	31	69.2978168250398	0.112152099609375	0.1121826171875	1.59912109375E-06	1.79393595090005E-07	70152.671875	2.03057174985588E-06
1	32	69.3985248247856	0.122222900390625	0.122314453125	1.5380859375E-06	1.88130144351817E-07	79523.8125	2.18854256672785E-06
1	33	69.4992328245313	0.132293701171875	0.13238525390625	1.48101806640625E-06	1.96064945612306E-07	89388.015625	2.34056665249227E-06
1	34	69.599940824277	0.142364501953125	0.142425537109375	1.42913818359375E-06	2.03545766908064E-07	99658.34375	2.4871046662156E-06
1	35	69.7006488240228	0.152435302734375	0.1524658203125	1.3818359375E-06	2.10682742363133E-07	110335.6953125	2.62864841715782E-06
1	36	69.8013568237685	0.162506103515625	0.162506103515625	1.33941650390625E-06	2.1766335578377E-07	121326.046875	2.76567425316898E-06
1	37	69.9020648235143	0.172576904296875	0.172637939453125	1.30157470703125E-06	2.24701167894636E-07	132637.75	2.89865874947282E-06
1	38	70.00277282326	0.182647705078125	0.18267822265625	1.26800537109375E-06	2.31636960279502E-07	144067.390625	3.02804755847319E-06
1	39	70.1034808230057	0.192718505859375	0.1927490234375	1.23809814453125E-06	2.38642201111361E-07	155681.546875	3.15423972097051E-06
1	40	70.2041888227515	0.202789306640625	0.202789306640625	1.21124267578125E-06	2.45627063577558E-07	167422.53125	3.27757379636751E-06
1	41	70.3048968224972	0.212860107421875	0.212890625	1.18804931640625E-06	2.5292456484749E-07	179193.421875	3.39838788931957E-06
1	42	70.4056048222429	0.222930908203125	0.22296142578125	1.1663818359375E-06	2.60058158119136E-07	191156.46875	3.51694279743242E-06
1	43	70.5063128219887	0.233001708984375	0.2330322265625	1.14654541015625E-06	2.67182031166158E-07	203247.265625	3.63340791409428E-06
1	44	70.6070208217344	0.243072509765625	0.2430419921875	1.12945556640625E-06	2.74505111974577E-07	215185.09375	3.74801379621204E-06
1	45	70.7077288214801	0.253143310546875	0.253143310546875	1.11358642578125E-06	2.81896973319817E-07	227322.546875	3.86096007787273E-06
1	46	70.8084368212259	0.263214111328125	0.263214111328125	1.099853515625E-06	2.89496966843217E-07	239317.421875	3.97241547034355E-06
1	47	70.9091448209716	0.273284912109375	0.2733154296875	1.087646484375E-06	2.97270560167817E-07	251290.703125	4.08256482842262E-06
1	48	71.0098528207174	0.283355712890625	0.283355712890625	1.0772705078125E-06	3.05250722476558E-07	263031.1875	4.19157686337712E-06
1	49	71.1105608204631	0.293426513671875	0.29339599609375	1.06781005859375E-06	3.13291167231E-07	274764.25	4.29959027314908E-06
1	50	71.2112688202088	0.303497314453125	0.30352783203125	1.058349609375E-06	3.21238530887058E-07	286793.5625	4.40665098722093E-06
1	51	71.3119768199546	0.313568115234375	0.3135986328125	1.05010986328125E-06	3.29313024849398E-07	298634.125	4.51282039648504E-06
1	52	71.4126848197003	0.323638916015625	0.323577880859375	1.04217529296875E-06	3.37224889790377E-07	310483.15625	4.61817535324371E-06
1	53	71.513392819446	0.333709716796875	0.333770751953125	1.03515625E-06	3.4550484429019E-07	322435.15625	4.72277724838932E-06
1	54	71.6141008191918	0.343780517578125	0.343780517578125	1.02935791015625E-06	3.53873190306331E-07	333975.6875	4.82673385704402E-06
1	55	71.7148088189375	0.353851318359375	0.3538818359375	1.024169921875E-06	3.62435145007112E-07	345530.375	4.93013703817269E-06
1	56	71.8155168186832	0.363922119140625	0.363861083984375	1.0205078125E-06	3.71323039871641E-07	356549.0625	5.03309502164484E-06
1	57	71.916224818429	0.373992919921875	0.3740234375	1.01593017578125E-06	3.79981685227904E-07	368158.625	5.13563782078563E-06
1	58	72.0169328181747	0.384063720703125	0.384033203125	1.011962890625E-06	3.88627313441248E-07	379493.40625	5.23774997418514E-06
1	59	72.1176408179205	0.394134521484375	0.394134521484375	1.00830078125E-06	3.97406125784983E-07	390889.84375	5.33947832082049E-06
1	60	72.2183488176662	0.404205322265625	0.404205322265625	1.00555419921875E-06	4.06450340051379E-07	401972.6875	5.44088425158407E-06
1	61	72.3190568174119	0.414276123046875	0.41424560546875	1.00341796875E-06	4.15661503438969E-07	412834.53125	5.54204416403081E-06
1	62	72.4197648171577	0.424346923828125	0.424346923828125	1.0015869140625E-06	4.25020289185341E-07	423674.625	5.64300398764317E-06
1	63	72.5204728169034	0.434417724609375	0.434417724609375	1.00128173828125E-06	4.34974509744279E-07	433861.65625	5.74385649088072E-06
1	64	72.6211808166491	0.444488525390625	0.444549560546875	1.00128173828125E-06	4.45119354708368E-07	443980.5	5.84469353270833E-06
1	65	72.7218888163949	0.454559326171875	0.45452880859375	1.0015869140625E-06	4.55250074082869E-07	453808.6875	5.94554603594588E-06
1	66	72.8225968161406	0.464630126953125	0.464569091796875	1.002197265625E-06	4.65589863551941E-07	463550.5625	6.04644446866587E-06
1	67	72.9233048158864	0.474700927734375	0.47467041015625	1.00372314453125E-06	4.76437662655371E-07	472909.71875	6.14745067650802E-06
1	68	73.0240128156321	0.484771728515625	0.484771728515625	1.00677490234375E-06	4.88055945879751E-07	481509.59375	6.24868744125706E-06
1	69	73.1247208153778	0.494842529296875	0.4947509765625	1.01104736328125E-06	5.002166290069E-07	489345.03125	6.35029255136033E-06
1	70	73.2254288151236	0.504913330078125	0.50494384765625	1.01715087890625E-06	5.13604106799903E-07	496429.625	6.45242062091711E-06
1	71	73.3261368148693	0.514984130859375	0.51495361328125	1.0247802734375E-06	5.27714291820303E-07	502501.53125	6.55523990644724E-06
1	72	73.426844814615	0.525054931640625	0.525054931640625	1.03546142578125E-06	5.43674104847014E-07	507073.375	6.65898141960497E-06
1	73	73.5275528143608	0.535125732421875	0.53509521484375	1.04736328125E-06	5.60439104901889E-07	510897.4375	6.76385980113992E-06
1	74	73.6282608141065	0.545196533203125	0.545166015625	1.06475830078125E-06	5.80470043587411E-07	512009.1875	6.87021383782849E-06
1	75	73.7289688138522	0.555267333984375	0.555206298828125	1.08734130859375E-06	6.03698708800948E-07	510609.0625	6.97858058629208E-06
1	76	73.829676813598	0.565338134765625	0.5653076171875	1.11785888671875E-06	6.31934142347745E-07	505705.6875	7.08962124917889E-06
1	77	73.9303848133437	0.575408935546875	0.57537841796875	1.16180419921875E-06	6.68477071030793E-07	495245.59375	7.20441130397376E-06
1	78	74.0310928130895	0.585479736328125	0.585418701171875	1.22406005859375E-06	7.16587635452015E-07	478259.78125	7.32454918761505E-06
1	79	74.1318008128352	0.595550537109375	0.595489501953125	1.31317138671875E-06	7.819797360753E-07	453474.34375	7.4523086368572E-06
1	80	74.2325088125809	0.605621337890625	0.60565185546875	1.43707275390625E-06	8.70365738592227E-07	421448.3125	7.59079466661206E-06
1	81	74.3332168123267	0.615692138671875	0.615631103515625	1.60614013671875E-06	9.88789793154865E-07	383298.5	7.74403270042967E-06
1	82	74.4339248120724	0.625762939453125	0.625732421875	1.82830810546875E-06	1.14403167117416E-06	342246.71875	7.91697038948769E-06
1	83	74.5346328118181	0.635833740234375	0.635772705078125	2.109375E-06	1.34108302063396E-06	301403.375	8.1152484199265E-06
1	84	74.6353408115639	0.645904541015625	0.6458740234375	2.451171875E-06	1.58314821874228E-06	263496	8.34489037515596E-06
1	85	74.7360488113096	0.655975341796875	0.6558837890625	2.8448486328125E-06	1.86588999895321E-06	230551.390625	8.6115660451469E-06
1	86	74.8367568110554	0.666046142578125	0.666015625	3.27484130859375E-06	2.18109539673605E-06	203373.40625	8.9197174020228E-06
1	87	74.9374648108011	0.676116943359375	0.676025390625	3.712158203125E-06	2.50951302405156E-06	182111.15625	9.27154087548843E-06
1	88	75.0381728105468	0.686187744140625	0.6861572265625	4.12872314453125E-06	2.83295321423793E-06	166191.15625	9.66636071098037E-06
1	89	75.1388808102926	0.696258544921875	0.6961669921875	4.48760986328125E-06	3.12412566927378E-06	155130.921875	1.01002269730088E-05
1	90	75.2395888100383	0.706329345703125	0.70623779296875	4.76409912109375E-06	3.36458651872817E-06	148241.640625	1.05660874396563E-05
1	91	75.340296809784	0.716400146484375	0.716278076171875	4.9407958984375E-06	3.53898371940886E-06	144972.203125	1.10547680378659E-05
1	92	75.4410048095298	0.726470947265625	0.726348876953125	5.0140380859375E-06	3.64194079338631E-06	144863.0625	1.15560333142639E-05
1	93	75.5417128092755	0.736541748046875	0.73638916015625	5.0048828125E-06	3.68554128726828E-06	147134.15625	1.20605263873585E-05
1	94	75.6424208090212	0.746612548828125	0.746429443359375	4.9407958984375E-06	3.68795554095414E-06	151074.734375	1.25613314594375E-05
1	95	75.743128808767	0.756683349609375	0.7568359375	4.8602294921875E-06	3.67839606951748E-06	155720.21875	1.30548514789552E-05
1	96	75.8438368085127	0.766754150390625	0.76690673828125	4.78790283203125E-06	3.67187476513209E-06	160175.921875	1.35406735353172E-05
1	97	75.9445448082585	0.776824951171875	0.7769775390625	4.7491455078125E-06	3.68997916666558E-06	163603.65625	1.40209021992632E-05
1	98	76.0452528080042	0.786895751953125	0.7867431640625	4.7613525390625E-06	3.74596152141748E-06	165235.21875	1.44997939059976E-05
1	99	76.1459608077499	0.796966552734375	0.797119140625	4.837646484375E-06	3.85618068321492E-06	164774.15625	1.49831421367708E-05
1	100	76.2466688074957	0.807037353515625	0.8074951171875	4.99267578125E-06	4.03156127504189E-06	161735.9375	1.54781373566948E-05
1	101	76.3473768072414	0.817108154296875	0.8172607421875	5.2215576171875E-06	4.26737369707553E-06	156516.671875	1.59924657054944E-05
1	102	76.4480848069871	0.827178955078125	0.82733154296875	5.5145263671875E-06	4.56234147350187E-06	150027.671875	1.65330711752176E-05
1	103	76.5487928067329	0.837249755859375	0.83740234375	5.853271484375E-06	4.90154343424365E-06	143065.6875	1.71054853126407E-05
1	104	76.6495008064786	0.847320556640625	0.8465576171875	6.2103271484375E-06	5.25739960721694E-06	136314.5	1.77129350049654E-05
1	105	76.7502088062244	0.857391357421875	0.85784912109375	6.549072265625E-06	5.61811566512915E-06	130987.8828125	1.83554220711812E-05
1	106	76.8509168059701	0.867462158203125	0.86761474609375	6.8389892578125E-06	5.93360755374306E-06	126863.0078125	1.90295631909976E-05
1	107	76.9516248057158	0.877532958984375	0.87799072265625	7.0465087890625E-06	6.18676904196036E-06	124599.3984375	1.97287536138901E-05
1	108	77.0523328054616	0.887603759765625	0.887451171875	7.1533203125E-06	6.34822208667174E-06	124061.4375	2.04437728825724E-05
1	109	77.1530408052073	0.897674560546875	0.89813232421875	7.1533203125E-06	6.42462782707298E-06	125554.609375	2.11641690839315E-05
1	110	77.253748804953	0.907745361328125	0.908203125	7.06787109375E-06	6.41906262899283E-06	128497.40625	2.18802633753512E-05
1	111	77.3544568046988	0.917816162109375	0.91796875	6.92138671875E-06	6.35361675449531E-06	132627.875	2.25846779358108E-05
1	112	77.4551648044445	0.927886962890625	0.92803955078125	6.73828125E-06	6.25339134785463E-06	137726.453125	2.32724978559418E-05
1	113	77.5558728041902	0.937957763671875	0.9381103515625	6.54296875E-06	6.13802649240824E-06	143376.875	2.39412602240918E-05
1	114	77.656580803936	0.948028564453125	0.94757080078125	6.353759765625E-06	6.02063710175571E-06	149135.453125	2.45906630880199E-05
1	115	77.7572888036817	0.958099365234375	0.958251953125	6.1767578125E-06	5.91889011047897E-06	155138.34375	2.52216250373749E-05
1	116	77.8579968034275	0.968170166015625	0.968017578125	6.011962890625E-06	5.81968561164103E-06	161015.234375	2.58353757089935E-05
1	117	77.9587048031732	0.978240966796875	0.9783935546875	5.865478515625E-06	5.73874604015145E-06	166805.421875	2.64334521489218E-05
1	118	78.0594128029189	0.988311767578125	0.9881591796875	5.7342529296875E-06	5.66635435461649E-06	172325.71875	2.70175441983156E-05
1	119	78.1601208026647	0.998382568359375	0.99853515625	5.615234375E-06	5.6070089158311E-06	177826.09375	2.7589036108111E-05
1	120	78.2608288024104	1.00845336914063	1.00830078125	5.50537109375E-06	5.55106998945121E-06	183148.5625	2.8149004720035E-05
1	121	78.3615368021561	1.01852416992188	1.0186767578125	5.4107666015625E-06	5.51182210983825E-06	188268.484375	2.86986742139561E-05
1	122	78.4622448019019	1.02859497070313	1.02813720703125	5.322265625E-06	5.47201943845721E-06	193176.609375	2.92391268885694E-05
1	123	78.5629528016476	1.03866577148438	1.038818359375	5.2398681640625E-06	5.44327122042887E-06	198252.765625	2.97709721053252E-05
1	124	78.6636608013933	1.04873657226563	1.04888916015625	5.1666259765625E-06	5.41921781405108E-06	203012.421875	3.02949811157305E-05
1	125	78.7643688011391	1.05880737304688	1.05865478515625	5.1025390625E-06	5.40182736585848E-06	207476.078125	3.08120725094341E-05
1	126	78.8650768008848	1.06887817382813	1.0687255859375	5.0384521484375E-06	5.38472249900224E-06	212113.875	3.13227137667127E-05
1	127	78.9657848006306	1.07894897460938	1.07940673828125	4.98046875E-06	5.37595133209834E-06	216727.953125	3.18272068398073E-05
1	128	79.0664928003763	1.08901977539063	1.0888671875	4.92584228515625E-06	5.36358766112244E-06	221052	3.23260283039417E-05
1	129	79.167200800122	1.09909057617188	1.0992431640625	4.87640380859375E-06	5.36035349796293E-06	225420.875	3.28196110785939E-05
1	130	79.2679087998678	1.10916137695313	1.10931396484375	4.830322265625E-06	5.35834396941937E-06	229656.3125	3.33083844452631E-05
1	131	79.3686167996135	1.11923217773438	1.119384765625	4.78790283203125E-06	5.35950493940618E-06	233794.390625	3.37926976499148E-05
1	132	79.4693247993592	1.12930297851563	1.12884521484375	4.74945068359375E-06	5.36139441464911E-06	237679.125	3.42729435942601E-05
1	133	79.570032799105	1.13937377929688	1.13922119140625	4.71343994140625E-06	5.36965080755181E-06	241696.34375	3.47494387824554E-05
1	134	79.6707407988507	1.14944458007813	1.1492919921875	4.6795654296875E-06	5.3781868700753E-06	245598.015625	3.52224124071654E-05
1	135	79.7714487985965	1.15951538085938	1.15997314453125	4.64813232421875E-06	5.39170878255391E-06	249556.828125	3.56921009370126E-05
1	136	79.8721567983422	1.16958618164063	1.16912841796875	4.619140625E-06	5.40036808160949E-06	253105.203125	3.61587444785982E-05
1	137	79.9728647980879	1.17965698242188	1.17950439453125	4.59228515625E-06	5.41662075193017E-06	256844.765625	3.6622575862566E-05
1	138	80.0735727978337	1.18972778320313	1.1895751953125	4.56756591796875E-06	5.4334627748176E-06	260439.65625	3.70838097296655E-05
1	139	80.1742807975794	1.19979858398438	1.199951171875	4.5465087890625E-06	5.45558805242763E-06	263928.0625	3.75427407561801E-05
1	140	80.2749887973251	1.20986938476563	1.20941162109375	4.5269775390625E-06	5.47497938896413E-06	267156.53125	3.79996272386052E-05
1	141	80.3756967970709	1.21994018554688	1.219482421875	4.5086669921875E-06	5.49823971596197E-06	270475.1875	3.84546074201353E-05
1	142	80.4764047968166	1.23001098632813	1.23016357421875	4.4921875E-06	5.52612573301303E-06	273845.09375	3.89078377338592E-05
1	143	80.5771127965623	1.24008178710938	1.240234375	4.47662353515625E-06	5.55206224817084E-06	277046.84375	3.93594527849928E-05
1	144	80.6778207963081	1.25015258789063	1.25	4.4622802734375E-06	5.57785006094491E-06	280125.84375	3.98095617129002E-05
1	145	80.7785287960538	1.26022338867188	1.26068115234375	4.449462890625E-06	5.60935359317227E-06	283333.34375	4.02583063987549E-05
1	146	80.8792367957996	1.27029418945313	1.27044677734375	4.4384765625E-06	5.63884805160342E-06	286234.875	4.07058469136246E-05
1	147	80.9799447955453	1.28036499023438	1.2811279296875	4.4287109375E-06	5.67374490856309E-06	289277.84375	4.11523469665553E-05
1	148	81.080652795291	1.29043579101563	1.290283203125	4.42047119140625E-06	5.70365955354646E-06	291888.15625	4.15979375247844E-05
1	149	81.1813607950368	1.30050659179688	1.30035400390625	4.4134521484375E-06	5.7390502661292E-06	294634.21875	4.20427604694851E-05
1	150	81.2820687947825	1.31057739257813	1.31072998046875	4.40704345703125E-06	5.77644414079259E-06	297417.0625	4.24869103881065E-05
1	151	81.3827767945282	1.32064819335938	1.32110595703125	4.40185546875E-06	5.81531730858842E-06	300124.8125	4.29304709541611E-05
1	152	81.483484794274	1.33071899414063	1.33087158203125	4.39788818359375E-06	5.85302404942922E-06	302616.0625	4.33735731348861E-05
1	153	81.5841927940197	1.34078979492188	1.34063720703125	4.395751953125E-06	5.89310866416781E-06	304984.71875	4.38163697253913E-05
1	154	81.6849007937655	1.35086059570313	1.3507080078125	4.395751953125E-06	5.93737740928191E-06	307275.75	4.42590571765322E-05
1	155	81.7856087935112	1.36093139648438	1.361083984375	4.39697265625E-06	5.98464885115391E-06	309550.25	4.47018064733129E-05
1	156	81.8863167932569	1.37100219726563	1.370849609375	4.4000244140625E-06	6.03177159064217E-06	311555	4.51447704108432E-05
1	157	81.9870247930027	1.38107299804688	1.38092041015625	4.40460205078125E-06	6.08240452493192E-06	313517.65625	4.55881163361482E-05
1	158	82.0877327927484	1.39114379882813	1.3916015625	4.410400390625E-06	6.13751990385936E-06	315527.25	4.60319897683803E-05
1	159	82.1884407924941	1.40121459960938	1.4007568359375	4.4189453125E-06	6.1898676904093E-06	316988.96875	4.64765798824374E-05
1	160	82.2891487922399	1.41128540039063	1.41143798828125	4.43145751953125E-06	6.25472739557154E-06	318504.25	4.69222359242849E-05
1	161	82.3898567919856	1.42135620117188	1.42120361328125	4.44732666015625E-06	6.32055707683321E-06	319563.5625	4.73693180538248E-05
1	162	82.4905647917313	1.43142700195313	1.4312744140625	4.4696044921875E-06	6.39723020867677E-06	320223.96875	4.78183210361749E-05
1	163	82.5912727914771	1.44149780273438	1.44134521484375	4.4964599609375E-06	6.48095101496438E-06	320551.09375	4.82697978441138E-05
1	164	82.6919807912228	1.45156860351563	1.4520263671875	4.530029296875E-06	6.57772216072772E-06	320533.53125	4.87243160023354E-05
1	165	82.7926887909686	1.46163940429688	1.4617919921875	4.57000732421875E-06	6.68040001983172E-06	319866.46875	4.91825412609614E-05
1	166	82.8933967907143	1.47171020507813	1.47186279296875	4.6173095703125E-06	6.79604590914096E-06	318770.65625	4.96451575600076E-05
1	167	82.99410479046	1.48178100585938	1.48162841796875	4.6734619140625E-06	6.92433377480484E-06	317030.1875	5.01129870826844E-05
1	168	83.0948127902058	1.49185180664063	1.49139404296875	4.74151611328125E-06	7.0714686444262E-06	314539.5	5.05870666529518E-05
1	169	83.1955207899515	1.50192260742188	1.50238037109375	4.82177734375E-06	7.24414348951541E-06	311582.28125	5.10686186316889E-05
1	170	83.2962287896972	1.49185180664063	1.49200439453125	4.56756591796875E-06	6.81482788422727E-06	326652	5.15414067194797E-05
1	171	83.396936789443	1.48178100585938	1.48223876953125	4.38720703125E-06	6.50288802717114E-06	337854.78125	5.19923160027247E-05
1	172	83.4976447891887	1.47171020507813	1.47125244140625	4.2498779296875E-06	6.25264283371507E-06	346187	5.24272290931549E-05
1	173	83.5983527889344	1.46163940429688	1.461181640625	4.139404296875E-06	6.04842125540017E-06	352993.21875	5.28496639162768E-05
1	174	83.6990607886802	1.45156860351563	1.451416015625	4.0484619140625E-06	5.87600243306952E-06	358510.46875	5.32619560544845E-05
1	175	83.7997687884259	1.44149780273438	1.44073486328125	3.97308349609375E-06	5.72416001887177E-06	362623.84375	5.36658699274994E-05
1	176	83.9004767881717	1.43142700195313	1.43157958984375	3.9093017578125E-06	5.59647651243722E-06	366198.3125	5.40627806913108E-05
1	177	84.0011847879174	1.42135620117188	1.4215087890625	3.8543701171875E-06	5.47902072867146E-06	368804.46875	5.4453714255942E-05
1	178	84.1018927876631	1.41128540039063	1.41143798828125	3.807373046875E-06	5.37387086296803E-06	370711.78125	5.48395109944977E-05
1	179	84.2026007874089	1.40121459960938	1.40106201171875	3.76617431640625E-06	5.27664360561175E-06	372012	5.52208693989087E-05
1	180	84.3033087871546	1.39114379882813	1.39129638671875	3.7286376953125E-06	5.1876399993489E-06	373138	5.55982660443988E-05
1	181	84.4040167869003	1.38107299804688	1.38092041015625	3.69476318359375E-06	5.1021738727286E-06	373750.71875	5.59720610908698E-05
1	182	84.5047247866461	1.37100219726563	1.37054443359375	3.66363525390625E-06	5.02117472933605E-06	374094.125	5.63425855943933E-05
1	183	84.6054327863918	1.36093139648438	1.36138916015625	3.6358642578125E-06	4.94982623422402E-06	374433.4375	5.6710145145189E-05
1	184	84.7061407861376	1.35086059570313	1.35101318359375	3.60992431640625E-06	4.87705528939841E-06	374249.71875	5.70750016777311E-05
1	185	84.8068487858833	1.34078979492188	1.3409423828125	3.58673095703125E-06	4.80959943160997E-06	373862	5.74373807467055E-05
1	186	84.907556785629	1.33071899414063	1.33056640625	3.5638427734375E-06	4.74192938781925E-06	373351.59375	5.77974424231797E-05
1	187	85.0082647853748	1.32064819335938	1.32080078125	3.54248046875E-06	4.67891049993341E-06	372846.34375	5.81552740186453E-05
1	188	85.1089727851205	1.31057739257813	1.3104248046875	3.5211181640625E-06	4.61416038888274E-06	372161.5625	5.8510951930657E-05
1	189	85.2096807848662	1.30050659179688	1.30035400390625	3.50006103515625E-06	4.55131839771639E-06	371523.25	5.88644979870878E-05
1	190	85.310388784612	1.29043579101563	1.29058837890625	3.47869873046875E-06	4.48956780019216E-06	370997.46875	5.921590491198E-05
1	191	85.4110967843577	1.28036499023438	1.28021240234375	3.458251953125E-06	4.42729697169852E-06	370190.59375	5.95652090851218E-05
1	192	85.5118047841034	1.27029418945313	1.2701416015625	3.438720703125E-06	4.36766185885062E-06	369364.59375	5.99124978180043E-05
1	193	85.6125127838492	1.26022338867188	1.259765625	3.41888427734375E-06	4.30699265052681E-06	368472.71875	6.02578074904159E-05
1	194	85.7132207835949	1.25015258789063	1.25	3.39935302734375E-06	4.24919107899768E-06	367717.0625	6.06011344643775E-05
1	195	85.8139287833407	1.24008178710938	1.240234375	3.3795166015625E-06	4.19139269070001E-06	366985.75	6.09424751019105E-05
1	196	85.9146367830864	1.23001098632813	1.22955322265625	3.35906982421875E-06	4.13015504818759E-06	366039.8125	6.1281789385248E-05
1	197	86.0153447828321	1.21994018554688	1.21978759765625	3.33892822265625E-06	4.07278321290505E-06	365323.125	6.16190591244958E-05
1	198	86.1160527825779	1.20986938476563	1.209716796875	3.31939697265625E-06	4.01553006668109E-06	364438.71875	6.19543352513574E-05
1	199	86.2167607823236	1.19979858398438	1.19964599609375	3.30047607421875E-06	3.95940287489793E-06	363476.65625	6.2287668697536E-05
1	200	86.3174687820693	1.18972778320313	1.1895751953125	3.2818603515625E-06	3.90401964978082E-06	362469.78125	6.26191176706925E-05
1	201	86.4181767818151	1.17965698242188	1.1798095703125	3.265380859375E-06	3.85252769774524E-06	361308.40625	6.29487985861488E-05
1	202	86.5188847815608	1.16958618164063	1.16943359375	3.24798583984375E-06	3.79830362362554E-06	360048.875	6.32767696515657E-05
1	203	86.6195927813066	1.15951538085938	1.15966796875	3.231201171875E-06	3.74712044504122E-06	358896.875	6.36030235909857E-05
1	204	86.7203007810523	1.14944458007813	1.14898681640625	3.2147216796875E-06	3.69367262464948E-06	357414.09375	6.39276040601544E-05
1	205	86.821008780798	1.13937377929688	1.1395263671875	3.1982421875E-06	3.64448123946204E-06	356297.71875	6.42505256109871E-05
1	206	86.9217167805438	1.12930297851563	1.129150390625	3.18359375E-06	3.59475598088466E-06	354677.9375	6.45718755549751E-05
1	207	87.0224247802895	1.11923217773438	1.11907958984375	3.1689453125E-06	3.54630196852668E-06	353139.4375	6.48917484795675E-05
1	208	87.1231327800352	1.10916137695313	1.10931396484375	3.15582275390625E-06	3.50079812960757E-06	351513.40625	6.52102244202979E-05
1	209	87.223840779781	1.09909057617188	1.09893798828125	3.14300537109375E-06	3.45396779266594E-06	349645.625	6.55273979646154E-05
1	210	87.3245487795267	1.08901977539063	1.08856201171875	3.1298828125E-06	3.40707151735842E-06	347796.40625	6.58432618365623E-05
1	211	87.4252567792724	1.07894897460938	1.07940673828125	3.11676025390625E-06	3.36425182467792E-06	346323.3125	6.61578087601811E-05
1	212	87.5259647790182	1.06887817382813	1.0687255859375	3.10333251953125E-06	3.31661067320965E-06	344380	6.64710096316412E-05
1	213	87.6266727787639	1.05880737304688	1.05865478515625	3.0889892578125E-06	3.27017323797918E-06	342718.84375	6.6782820795197E-05
1	214	87.7273807785097	1.04873657226563	1.04888916015625	3.076171875E-06	3.22656342177652E-06	340972.21875	6.70932640787214E-05
1	215	87.8280887782554	1.03866577148438	1.038818359375	3.06243896484375E-06	3.18131787935272E-06	339212.75	6.74023613100871E-05
1	216	87.9287967780011	1.02859497070313	1.0284423828125	3.0487060546875E-06	3.13541841023834E-06	337337.34375	6.77100833854638E-05
1	217	88.0295047777469	1.01852416992188	1.01837158203125	3.03375244140625E-06	3.08948710880941E-06	335680.53125	6.80163648212329E-05
1	218	88.1302127774926	1.00845336914063	1.009521484375	3.01666259765625E-06	3.04538571072044E-06	334648.46875	6.83210237184539E-05
1	219	88.2309207772383	0.998382568359375	0.99853515625	2.99713134765625E-06	2.99274097415037E-06	333163.625	6.86238417983986E-05
1	220	88.3316287769841	0.988311767578125	0.98846435546875	2.97393798828125E-06	2.93963148578769E-06	332375.59375	6.89245061948895E-05
1	221	88.4323367767298	0.978240966796875	0.97808837890625	2.9473876953125E-06	2.88280557469989E-06	331849.25	6.92226749379188E-05
1	222	88.5330447764755	0.968170166015625	0.968017578125	2.91473388671875E-06	2.82151358987903E-06	332111.8125	6.95178532623686E-05
1	223	88.6337527762213	0.958099365234375	0.958251953125	2.8729248046875E-06	2.75298589258455E-06	333545.78125	6.98092844686471E-05
1	224	88.734460775967	0.948028564453125	0.94818115234375	2.818603515625E-06	2.67254654318094E-06	336401.0625	7.00958771631122E-05
1	225	88.8351687757128	0.937957763671875	0.9375	2.74566650390625E-06	2.57406236414681E-06	341447.15625	7.03760597389191E-05
1	226	88.9358767754585	0.927886962890625	0.92803955078125	2.645263671875E-06	2.45490923589387E-06	350830.65625	7.06475111655891E-05
1	227	89.0365847752042	0.917816162109375	0.91796875	2.51190185546875E-06	2.30584737437312E-06	365447.71875	7.09071973687969E-05
1	228	89.13729277495	0.907745361328125	0.90789794921875	2.33367919921875E-06	2.11874248634558E-06	389041.46875	7.11511893314309E-05
1	229	89.2380007746957	0.897674560546875	0.8978271484375	2.10235595703125E-06	1.8875522300732E-06	427057.65625	7.1374568506144E-05
1	230	89.3387087744414	0.887603759765625	0.887451171875	1.812744140625E-06	1.60872195920092E-06	489562.28125	7.15717033017427E-05
1	231	89.4394167741872	0.877532958984375	0.877685546875	1.46514892578125E-06	1.28594001580495E-06	599041.875	7.17367584002204E-05
1	232	89.5401247739329	0.867462158203125	0.86761474609375	1.068115234375E-06	9.26712516502448E-07	812285.6875	7.18643204891123E-05
1	233	89.6408327736787	0.857391357421875	0.85784912109375	6.3751220703125E-07	5.46889282304619E-07	1345620	7.19502058927901E-05
1	234	89.7415407734244	0.847320556640625	0.84747314453125	2.032470703125E-07	1.72246430452105E-07	4169669.75	7.1992544690147E-05
1	235	89.8422487731701	0.837249755859375	0.83740234375	-2.08435058593751E-07	-1.74543998809895E-07	-4017569.75	7.19922827556729E-05
1	236	89.9429567729159	0.827178955078125	0.8270263671875	-5.63659667968749E-07	-4.66161367285167E-07	-1467244.25	7.19534000381827E-05
1	237	90.0436647726616	0.817108154296875	0.81756591796875	-8.392333984375E-07	-6.86128601046221E-07	-974181.8125	7.18827577657066E-05
1	238	90.1443727724073	0.807037353515625	0.80718994140625	-1.01654052734375E-06	-8.20541288248933E-07	-794055.8125	7.17893126420677E-05
1	239	90.2450807721531	0.796966552734375	0.79742431640625	-1.09893798828125E-06	-8.7631991618764E-07	-725631.75	7.1682792622596E-05
1	240	90.3457887718988	0.786895751953125	0.78704833984375	-1.10626220703125E-06	-8.70681788001093E-07	-711448.3125	7.1571754233446E-05
1	241	90.4464967716445	0.776824951171875	0.77667236328125	-1.06292724609375E-06	-8.25546237592789E-07	-730691.9375	7.14625275577419E-05
1	242	90.5472047713903	0.766754150390625	0.76690673828125	-9.99755859375E-07	-7.6671943816109E-07	-767094.0625	7.13586632627994E-05
1	243	90.647912771136	0.756683349609375	0.7568359375	-9.4329833984375E-07	-7.13922020167956E-07	-802329.375	7.12608161848038E-05
1	244	90.7486207708818	0.746612548828125	0.746551513671875	-9.13391113281251E-07	-6.81893482123996E-07	-817340.5	7.11673274054192E-05
1	245	90.8493287706275	0.736541748046875	0.7364501953125	-9.27734375E-07	-6.83230155118508E-07	-793815.8125	7.10746171534993E-05
1	246	90.9500367703732	0.726470947265625	0.726409912109375	-1.00006103515625E-06	-7.2645423188078E-07	-726365.5625	7.09775486029685E-05
1	247	91.050744770119	0.716400146484375	0.716400146484375	-1.1407470703125E-06	-8.17231352812087E-07	-628009.625	7.08697480149567E-05
1	248	91.1514527698647	0.706329345703125	0.706298828125	-1.35467529296875E-06	-9.56805592977616E-07	-521378.6875	7.07440922269598E-05
1	249	91.2521607696104	0.696258544921875	0.69622802734375	-1.63665771484375E-06	-1.1394869261494E-06	-425396.25	7.05934726283886E-05
1	250	91.3528687693562	0.686187744140625	0.686126708984375	-1.96533203125E-06	-1.34846663968347E-06	-349114.9375	7.04120975569822E-05
1	251	91.4535767691019	0.676116943359375	0.676055908203125	-2.314453125E-06	-1.56469968715101E-06	-292101.8125	7.01965909684077E-05
1	252	91.5542847688477	0.666046142578125	0.665985107421875	-2.64862060546875E-06	-1.7639417819737E-06	-251446.03125	6.99466763762757E-05
1	253	91.6549927685934	0.655975341796875	0.655914306640625	-2.9327392578125E-06	-1.92362563211645E-06	-223652.453125	6.96656352374703E-05
1	254	91.7557007683391	0.645904541015625	0.64581298828125	-3.13385009765625E-06	-2.02388105208229E-06	-206076.546875	6.93601614329964E-05
1	255	91.8564087680849	0.635833740234375	0.635772705078125	-3.23699951171875E-06	-2.05799597097212E-06	-196408.03125	6.9039364461787E-05
1	256	91.9571167678306	0.625762939453125	0.625732421875	-3.23974609375E-06	-2.02721412279061E-06	-193142.421875	6.87132342136465E-05
1	257	92.0578247675763	0.615692138671875	0.615692138671875	-3.15826416015625E-06	-1.94451831703191E-06	-194946.375	6.83910693624057E-05
1	258	92.1585327673221	0.605621337890625	0.6055908203125	-3.0206298828125E-06	-1.82926567049435E-06	-200484.953125	6.8079934862908E-05
1	259	92.2592407670678	0.595550537109375	0.595550537109375	-2.85247802734375E-06	-1.69879479017254E-06	-208783.5625	6.77841962897219E-05
1	260	92.3599487668135	0.585479736328125	0.585479736328125	-2.67364501953125E-06	-1.56536498252535E-06	-218981.859375	6.7505934566725E-05
1	261	92.4606567665593	0.575408935546875	0.575408935546875	-2.49755859375E-06	-1.4371175893757E-06	-230388.5625	6.72455498715863E-05
1	262	92.561364766305	0.565338134765625	0.5653076171875	-2.33184814453125E-06	-1.31821138893429E-06	-242429.015625	6.70023655402474E-05
1	263	92.6620727660508	0.555267333984375	0.555206298828125	-2.18017578125E-06	-1.21044729439745E-06	-254661.265625	6.67751664877869E-05
1	264	92.7627807657965	0.545196533203125	0.545135498046875	-2.04345703125E-06	-1.11396093416261E-06	-266771.21875	6.65624902467243E-05
1	265	92.8634887655422	0.535125732421875	0.535064697265625	-1.92138671875E-06	-1.02806620816409E-06	-278478.40625	6.63628452457488E-05
1	266	92.964196765288	0.525054931640625	0.525054931640625	-1.8115234375E-06	-9.51149274897034E-07	-289841.65625	6.61748781567439E-05
1	267	93.0649047650337	0.514984130859375	0.514984130859375	-1.71356201171875E-06	-8.82457186435204E-07	-300534.3125	6.59973738947883E-05
1	268	93.1656127647794	0.504913330078125	0.504913330078125	-1.62445068359375E-06	-8.20206764728937E-07	-310820.96875	6.58292919979431E-05
1	269	93.2663207645252	0.494842529296875	0.49481201171875	-1.5435791015625E-06	-7.63781486057269E-07	-320561.5	6.56697739032097E-05
1	270	93.3670287642709	0.484771728515625	0.484710693359375	-1.47064208984375E-06	-7.12835912963783E-07	-329591.21875	6.55179901514202E-05
1	271	93.4677367640166	0.474700927734375	0.474700927734375	-1.40350341796875E-06	-6.66244318381359E-07	-338225.71875	6.53732713544741E-05
1	272	93.5684447637624	0.464630126953125	0.464599609375	-1.3427734375E-06	-6.23852031367278E-07	-346000	6.5234984504059E-05
1	273	93.6691527635081	0.454559326171875	0.454559326171875	-1.28662109375E-06	-5.84845622597641E-07	-353296.96875	6.51025839033537E-05
1	274	93.7698607632539	0.444488525390625	0.444549560546875	-1.23504638671875E-06	-5.4903932777961E-07	-359945.625	6.49756038910709E-05
1	275	93.8705687629996	0.434417724609375	0.4344482421875	-1.1871337890625E-06	-5.15748183715914E-07	-365964.03125	6.48536370135844E-05
1	276	93.9712767627453	0.424346923828125	0.42437744140625	-1.1419677734375E-06	-4.84625388708082E-07	-371619.4375	6.4736363128759E-05
1	277	94.0719847624911	0.414276123046875	0.414337158203125	-1.10015869140625E-06	-4.55836612900384E-07	-376615.8125	6.46234620944597E-05
1	278	94.1726927622368	0.404205322265625	0.4041748046875	-1.06048583984375E-06	-4.28621660830686E-07	-381122.3125	6.45146647002548E-05
1	279	94.2734007619825	0.394134521484375	0.3941650390625	-1.02386474609375E-06	-4.0357167563343E-07	-384977.65625	6.44097090116702E-05
1	280	94.3741087617283	0.384063720703125	0.384002685546875	-9.906005859375E-07	-3.80393288423875E-07	-387646.34375	6.43082676106133E-05
1	281	94.474816761474	0.373992919921875	0.3740234375	-9.59167480468751E-07	-3.58751094609033E-07	-389945.9375	6.42100931145251E-05
1	282	94.5755247612198	0.363922119140625	0.36395263671875	-9.29870605468749E-07	-3.38428833401849E-07	-391401.40625	6.41149745206349E-05
1	283	94.6762327609655	0.353851318359375	0.3538818359375	-9.0179443359375E-07	-3.19128673709201E-07	-392419.625	6.40227372059599E-05
1	284	94.7769407607112	0.343780517578125	0.343780517578125	-8.7493896484375E-07	-3.00786979323675E-07	-392919.4375	6.39332720311359E-05
1	285	94.877648760457	0.333709716796875	0.333740234375	-8.50524902343749E-07	-2.83854376448289E-07	-392393.25	6.38463898212649E-05
1	286	94.9783567602027	0.323638916015625	0.323638916015625	-8.27941894531251E-07	-2.67954192167963E-07	-390895.71875	6.37618722976185E-05
1	287	95.0790647599484	0.313568115234375	0.313629150390625	-8.074951171875E-07	-2.53254000881498E-07	-388397.59375	6.36795230093412E-05
1	288	95.1797727596942	0.303497314453125	0.303466796875	-7.8857421875E-07	-2.39306075400236E-07	-384829.71875	6.35991527815349E-05
1	289	95.2804807594399	0.293426513671875	0.293487548828125	-7.708740234375E-07	-2.26241922973713E-07	-380720.5	6.35206306469627E-05
1	290	95.3811887591856	0.283355712890625	0.283416748046875	-7.5408935546875E-07	-2.13721548902868E-07	-375839.75	6.34438401903026E-05
1	291	95.4818967589314	0.273284912109375	0.273223876953125	-7.39440917968751E-07	-2.02032907736793E-07	-369500.625	6.33686358924024E-05
1	292	95.5826047586771	0.263214111328125	0.26324462890625	-7.2509765625E-07	-1.90878068906386E-07	-363047.125	6.3294886786025E-05
1	293	95.6833127584229	0.253143310546875	0.253143310546875	-7.122802734375E-07	-1.80308987296485E-07	-355398.46875	6.32225128356367E-05
1	294	95.7840207581686	0.243072509765625	0.243133544921875	-7.0037841796875E-07	-1.70285474609955E-07	-347145.96875	6.31513830740005E-05
1	295	95.8847287579143	0.233001708984375	0.2330322265625	-6.9122314453125E-07	-1.61077267080145E-07	-337130.25	6.30813083262183E-05
1	296	95.9854367576601	0.222930908203125	0.2230224609375	-6.8267822265625E-07	-1.52252567886535E-07	-326687.53125	6.30121285212226E-05
1	297	96.0861447574058	0.212860107421875	0.21282958984375	-6.75354003906251E-07	-1.43735306323833E-07	-315137.84375	6.29437417956069E-05
1	298	96.1868527571515	0.202789306640625	0.202850341796875	-6.695556640625E-07	-1.35819604452081E-07	-302962.625	6.28760244580917E-05
1	299	96.2875607568973	0.192718505859375	0.1927490234375	-6.65893554687499E-07	-1.28350322370352E-07	-289459.21875	6.28087727818638E-05
1	300	96.388268756643	0.182647705078125	0.18267822265625	-6.63146972656251E-07	-1.21142505804528E-07	-275471.6875	6.27418557996862E-05
1	301	96.4889767563888	0.172576904296875	0.172637939453125	-6.634521484375E-07	-1.1453700921038E-07	-260211.609375	6.26750552328303E-05
1	302	96.5896847561345	0.162506103515625	0.162506103515625	-6.67419433593749E-07	-1.08459730085997E-07	-243484.21875	6.26080363872461E-05
1	303	96.6903927558802	0.152435302734375	0.152374267578125	-6.75048828124999E-07	-1.02860063577737E-07	-225723.34375	6.25404427410103E-05
1	304	96.791100755626	0.142364501953125	0.14239501953125	-6.87561035156251E-07	-9.79052643401701E-08	-207101.65625	6.24718304607086E-05
1	305	96.8918087553717	0.132293701171875	0.132415771484375	-7.0556640625E-07	-9.34281132458636E-08	-187673.015625	6.24016756773926E-05
1	306	96.9925167551174	0.122222900390625	0.122314453125	-7.28759765625001E-07	-8.91378491019168E-08	-167839.203125	6.23294545221142E-05
1	307	97.0932247548632	0.112152099609375	0.112213134765625	-7.598876953125E-07	-8.52693773367719E-08	-147670.6875	6.22544976067729E-05
1	308	97.1939327546089	0.102081298828125	0.10211181640625	-7.98645019531249E-07	-8.15510858842572E-08	-127856.328125	6.21760191279463E-05
1	309	97.2946407543546	0.092010498046875	0.092132568359375	-8.49304199218751E-07	-7.82485756189999E-08	-108480.0625	6.20930368313566E-05
1	310	97.3953487541004	0.081939697265625	0.08197021484375	-9.14916992187501E-07	-7.4995945453793E-08	-89593.0625	6.20041973888874E-05
1	311	97.4960567538461	0.071868896484375	0.071929931640625	-1.0003662109375E-06	-7.19562720519207E-08	-71903.6015625	6.19077545707114E-05
1	312	97.5967647535919	0.061798095703125	0.0618896484375	-1.11175537109375E-06	-6.88061447817745E-08	-55668.41015625	6.18014018982649E-05
1	313	97.6974727533376	0.051727294921875	0.051788330078125	-1.25152587890625E-06	-6.48144364845393E-08	-41380.15234375	6.16824036114849E-05
1	314	97.7981807530833	0.041656494140625	0.0417388916015625	-1.42059326171875E-06	-5.92939848331753E-08	-29381.310546875	6.15478493273258E-05
1	315	97.8988887528291	0.031585693359375	0.031719970703125	-1.612548828125E-06	-5.11499997912779E-08	-19670.705078125	6.13951197010465E-05
1	316	97.9995967525748	0.021514892578125	0.0215972900390625	-1.81427001953125E-06	-3.91833161472732E-08	-11904.1220703125	6.12225703662261E-05
1	317	98.1003047523205	0.011444091796875	0.01153564453125	-2.00927734375E-06	-2.31783090498539E-08	-5741.19091796875	6.10300376138184E-05
1	318	98.2010127520663	0.001373291015625	0.001483154296875	-2.177734375E-06	-3.22991589030153E-09	-681.053771972656	6.08192021900322E-05
1	319	98.301720751812	-0.008697509765625	-0.0086090087890625	-2.30072021484375E-06	1.98069205481488E-08	3741.87573242188	6.0593694797717E-05
1	320	98.4024287515577	-0.018768310546875	-0.018634033203125	-2.3712158203125E-06	4.41853096333489E-08	7858.4296875	6.03584448981564E-05
1	321	98.5031367513035	-0.028839111328125	-0.0287353515625	-2.39227294921875E-06	6.87427998968815E-08	12011.736328125	6.01185856794473E-05
1	322	98.6038447510492	-0.038909912109375	-0.038775634765625	-2.37091064453125E-06	9.19335576554658E-08	16354.7431640625	5.98787373746745E-05
1	323	98.704552750795	-0.048980712890625	-0.0488037109375	-2.32269287109375E-06	1.13356023234701E-07	21011.693359375	5.96423960814718E-05
1	324	98.8052607505407	-0.059051513671875	-0.058990478515625	-2.259521484375E-06	1.33290242843032E-07	26107.51171875	5.94116645515896E-05
1	325	98.9059687502864	-0.069122314453125	-0.069091796875	-2.191162109375E-06	1.51391333247375E-07	31532.033203125	5.91875541431364E-05
1	326	99.0066767500322	-0.079193115234375	-0.0791015625	-2.1240234375E-06	1.68013571055781E-07	37241.37890625	5.89702685829252E-05
1	327	99.1073847497779	-0.089263916015625	-0.08917236328125	-2.0611572265625E-06	1.83798249508982E-07	43263.25390625	5.8759527746588E-05
1	328	99.2080927495236	-0.099334716796875	-0.09930419921875	-2.00347900390625E-06	1.98953884478215E-07	49565.87890625	5.8554855058901E-05
1	329	99.3088007492694	-0.109405517578125	-0.1092529296875	-1.95281982421875E-06	2.13351270872408E-07	55946.24609375	5.83556393394247E-05
1	330	99.4095087490151	-0.119476318359375	-0.119354248046875	-1.9085693359375E-06	2.27795837304257E-07	62535.98046875	5.81612039241008E-05
1	331	99.5102167487609	-0.129547119140625	-0.1295166015625	-1.87042236328125E-06	2.42250735027483E-07	69244.578125	5.79709158046171E-05
1	332	99.6109247485066	-0.139617919921875	-0.1395263671875	-1.83837890625E-06	2.56502318052299E-07	75896.421875	5.77841638005339E-05
1	333	99.7116327482523	-0.149688720703125	-0.149566650390625	-1.81243896484375E-06	2.71080409675051E-07	82522.3125	5.76003294554539E-05
1	334	99.8123407479981	-0.159759521484375	-0.159637451171875	-1.7926025390625E-06	2.86166482510453E-07	89053.4609375	5.74188015889376E-05
1	335	99.9130487477438	-0.169830322265625	-0.169647216796875	-1.7767333984375E-06	3.01417884429611E-07	95482.65625	5.72390708839521E-05
1	336	100.01375674749	-0.179901123046875	-0.17974853515625	-1.76513671875E-06	3.17280722583746E-07	101832.6484375	5.7060726248892E-05
1	337	100.114464747235	-0.189971923828125	-0.189849853515625	-1.7578125E-06	3.3372043617419E-07	108003.4765625	5.68833311263006E-05
1	338	100.215172746981	-0.200042724609375	-0.19989013671875	-1.754150390625E-06	3.5063735026597E-07	113952.6796875	5.67064889764879E-05
1	339	100.315880746727	-0.189971923828125	-0.1898193359375	-1.55059814453125E-06	2.94333489136989E-07	122416.8515625	5.65400805498939E-05
2	340	100.416588746472	-0.179901123046875	-0.179718017578125	-1.40594482421875E-06	2.52673601153219E-07	127827.2265625	5.63912071811501E-05
2	341	100.517296746218	-0.169830322265625	-0.169677734375	-1.28875732421875E-06	2.18673420704363E-07	131659.96875	5.62555178476032E-05
2	342	100.618004745964	-0.159759521484375	-0.159637451171875	-1.18927001953125E-06	1.89852016774239E-07	134231.46875	5.61307388124987E-05
2	343	100.71871274571	-0.149688720703125	-0.149505615234375	-1.1016845703125E-06	1.64708026773042E-07	135706.375	5.60153821425047E-05
2	344	100.819420745455	-0.139617919921875	-0.139495849609375	-1.0223388671875E-06	1.4261203773458E-07	136447.75	5.5908429203555E-05
2	345	100.920128745201	-0.129547119140625	-0.129425048828125	-9.4940185546875E-07	1.22876386399184E-07	136322.71875	5.58091451239306E-05
2	346	101.020836744947	-0.119476318359375	-0.119384765625	-8.807373046875E-07	1.05146611417695E-07	135550.9375	5.57169878447894E-05
2	347	101.121544744693	-0.109405517578125	-0.109344482421875	-8.15734863281251E-07	8.91961065008218E-08	134044.15625	5.56315644644201E-05
2	348	101.222252744438	-0.099334716796875	-0.09930419921875	-7.5225830078125E-07	7.47024060387957E-08	132008.109375	5.55526094103698E-05
2	349	101.322960744184	-0.089263916015625	-0.08917236328125	-6.88781738281249E-07	6.14202946280784E-08	129463.8984375	5.54800462850835E-05
2	350	101.42366874393	-0.079193115234375	-0.07916259765625	-6.21643066406249E-07	4.92108789273971E-08	127344.140625	5.54140606254805E-05
2	351	101.524376743676	-0.069122314453125	-0.069091796875	-5.47180175781251E-07	3.78056590477627E-08	126268.828125	5.53552090423182E-05
2	352	101.625084743421	-0.059051513671875	-0.058929443359375	-4.61425781249999E-07	2.71915645555509E-08	127711.640625	5.53044192201924E-05
2	353	101.725792743167	-0.048980712890625	-0.0488525390625	-3.5858154296875E-07	1.75176193550897E-08	136238.3125	5.52631281607319E-05
2	354	101.826500742913	-0.038909912109375	-0.0387664794921875	-2.3345947265625E-07	9.05040131726764E-09	166052.296875	5.52333185623866E-05
2	355	101.927208742659	-0.028839111328125	-0.028729248046875	-8.17871093750006E-08	2.34968222656562E-09	351268.6875	5.52174424228724E-05
2	356	102.027916742404	-0.018768310546875	-0.0186767578125	1.00097656250001E-07	-1.86949966618499E-09	-186585.375	5.52183664694894E-05
2	357	102.12862474215	-0.008697509765625	-0.00859985351562501	3.1005859375E-07	-2.66645838742363E-09	-27736.21875	5.52390192751773E-05
2	358	102.229332741896	0.001373291015625	0.0014678955078125	5.389404296875E-07	7.91108178965771E-10	2723.66918945313	5.52817691641394E-05
2	359	102.330040741641	0.011444091796875	0.0115325927734375	7.7392578125E-07	8.92537066476962E-09	14901.419921875	5.53478785150219E-05
2	360	102.430748741387	0.021514892578125	0.021588134765625	9.92431640625E-07	2.14247481977736E-08	21752.767578125	5.54368198208977E-05
2	361	102.531456741133	0.031585693359375	0.0317047119140625	1.17767333984375E-06	3.73377950779741E-08	26921.484375	5.55460937903263E-05
2	362	102.632164740879	0.041656494140625	0.0417572021484375	1.31317138671875E-06	5.483436282816E-08	31798.748046875	5.56715167476796E-05
2	363	102.732872740624	0.051727294921875	0.051788330078125	1.392822265625E-06	7.21319395324826E-08	37182.296875	5.58077772438992E-05
2	364	102.83358074037	0.061798095703125	0.061798095703125	1.42059326171875E-06	8.77899566376072E-08	43501.61328125	5.59494437766261E-05
2	365	102.934288740116	0.071868896484375	0.071929931640625	1.4105224609375E-06	1.01458780932262E-07	50995.2421875	5.60920016141608E-05
2	366	103.034996739862	0.081939697265625	0.082000732421875	1.37603759765625E-06	1.12836083587808E-07	59591.9296875	5.62323148187716E-05
2	367	103.135704739607	0.092010498046875	0.092071533203125	1.32720947265625E-06	1.22198215990466E-07	69372.265625	5.63684334338177E-05
2	368	103.236412739353	0.102081298828125	0.1021728515625	1.2744140625E-06	1.30210509041717E-07	80172.421875	5.64994370506611E-05
2	369	103.337120739099	0.112152099609375	0.1121826171875	1.2213134765625E-06	1.37010147227556E-07	91854.0703125	5.66251073905732E-05
2	370	103.437828738845	0.122222900390625	0.122283935546875	1.1712646484375E-06	1.43226856152978E-07	104403.3359375	5.67455826967489E-05
2	371	103.53853673859	0.132293701171875	0.13238525390625	1.12548828125E-06	1.48998040572224E-07	117624.734375	5.68612340430263E-05
2	372	103.639244738336	0.142364501953125	0.14239501953125	1.085205078125E-06	1.54527796780712E-07	131214.84375	5.69725489185657E-05
2	373	103.739952738082	0.152435302734375	0.152435302734375	1.04827880859375E-06	1.59794694809534E-07	145414.84375	5.70799784327392E-05
2	374	103.840660737828	0.162506103515625	0.16253662109375	1.016845703125E-06	1.65274656183101E-07	159843.9375	5.71839664189611E-05
2	375	103.941368737573	0.172576904296875	0.172607421875	9.89685058593751E-07	1.70826993439732E-07	174406.40625	5.72850040043704E-05
2	376	104.042076737319	0.182647705078125	0.1826171875	9.66796875000001E-07	1.76553726305428E-07	188888.890625	5.73835204704665E-05
2	377	104.142784737065	0.192718505859375	0.192657470703125	9.45434570312501E-07	1.82145029725689E-07	203776.640625	5.74798104935326E-05
2	378	104.24349273681	0.202789306640625	0.202850341796875	9.2742919921875E-07	1.88129334333098E-07	218723.265625	5.757411418017E-05
2	379	104.344200736556	0.212860107421875	0.212799072265625	9.1094970703125E-07	1.93849245988531E-07	233601.34375	5.76666861888953E-05
2	380	104.444908736302	0.222930908203125	0.222930908203125	8.9599609375E-07	1.99745230133885E-07	248807.90625	5.77576720388606E-05
2	381	104.545616736048	0.233001708984375	0.23297119140625	8.837890625E-07	2.05897379146336E-07	263604.96875	5.78472900087945E-05
2	382	104.646324735793	0.243072509765625	0.243011474609375	8.72802734375E-07	2.12101085139693E-07	278426.5625	5.79357438255101E-05
2	383	104.747032735539	0.253143310546875	0.253204345703125	8.6395263671875E-07	2.18756554204447E-07	293076.65625	5.8023193560075E-05
2	384	104.847740735285	0.263214111328125	0.26318359375	8.563232421875E-07	2.25370214934628E-07	307341.4375	5.81098174734507E-05
2	385	104.948448735031	0.273284912109375	0.273284912109375	8.4991455078125E-07	2.32268831723559E-07	321543.96875	5.8195731980959E-05
2	386	105.049156734776	0.283355712890625	0.2833251953125	8.44421386718749E-07	2.39245849797953E-07	335525.84375	5.82810498599429E-05
2	387	105.149864734522	0.293426513671875	0.293426513671875	8.3892822265625E-07	2.46163779138442E-07	349763.5625	5.83658147661481E-05
2	388	105.250572734268	0.303497314453125	0.303466796875	8.349609375E-07	2.53382921755474E-07	363450.28125	5.84500994591508E-05
2	389	105.351280734014	0.313568115234375	0.313568115234375	8.32214355468749E-07	2.60955886233205E-07	376787.6875	5.85340494581033E-05
2	390	105.451988733759	0.323638916015625	0.323638916015625	8.30078125E-07	2.68645578671567E-07	389889.71875	5.86177520744968E-05
2	391	105.552696733505	0.333709716796875	0.333770751953125	8.29467773437501E-07	2.76852063052502E-07	402391.46875	5.87013164476957E-05
2	392	105.653404733251	0.343780517578125	0.343780517578125	8.28857421875E-07	2.84945031125972E-07	414764.34375	5.87848189752549E-05
2	393	105.754112732997	0.353851318359375	0.353851318359375	8.28857421875E-07	2.93292288233715E-07	426914.59375	5.88682923989836E-05
2	394	105.854820732742	0.363922119140625	0.36395263671875	8.29467773437501E-07	3.0188698474376E-07	438778.53125	5.89517949265428E-05
2	395	105.955528732488	0.373992919921875	0.3740234375	8.2977294921875E-07	3.10354522525813E-07	450753.96875	5.90353447478265E-05
2	396	106.056236732234	0.384063720703125	0.384063720703125	8.3038330078125E-07	3.18920086783692E-07	462513.8125	5.91189418628346E-05
2	397	106.156944731979	0.394134521484375	0.3941650390625	8.331298828125E-07	3.28390683534963E-07	473113.5625	5.92027063248679E-05
2	398	106.257652731725	0.404205322265625	0.404327392578125	8.3465576171875E-07	3.37474176603791E-07	484424.15625	5.92866854276508E-05
2	399	106.358360731471	0.414276123046875	0.414276123046875	8.36791992187499E-07	3.4666294368435E-07	495076.59375	5.93708500673529E-05
2	400	106.459068731217	0.424346923828125	0.42437744140625	8.38623046875001E-07	3.55892694869908E-07	506040.78125	5.94552147958893E-05
2	401	106.559776730962	0.434417724609375	0.4344482421875	8.41064453125E-07	3.65398960866514E-07	516545.71875	5.95397941651754E-05
2	402	106.660484730708	0.444488525390625	0.44451904296875	8.43200683593751E-07	3.74818739601324E-07	527180.625	5.96246027271263E-05
2	403	106.761192730454	0.454559326171875	0.45458984375	8.44726562500001E-07	3.84004096076751E-07	538150.3125	5.97095968259964E-05
2	404	106.8619007302	0.464630126953125	0.464630126953125	8.47473144531249E-07	3.93761553141303E-07	548253.5	5.97948055656161E-05
2	405	106.962608729945	0.474700927734375	0.474761962890625	8.50830078125001E-07	4.03941754711923E-07	557998.5625	5.98803198954556E-05
2	406	107.063316729691	0.484771728515625	0.484771728515625	8.55407714843751E-07	4.1467745859336E-07	566714.25	5.99662380409427E-05
2	407	107.164024729437	0.494842529296875	0.494842529296875	8.6090087890625E-07	4.26010359433349E-07	574796.1875	6.0052661865484E-05
2	408	107.264732729183	0.504913330078125	0.504913330078125	8.67919921875E-07	4.3822430484397E-07	581751.0625	6.01397150603589E-05
2	409	107.365440728928	0.514984130859375	0.514984130859375	8.7554931640625E-07	4.50893992365309E-07	588184.0625	6.02275031269528E-05
2	410	107.466148728674	0.525054931640625	0.525054931640625	8.85925292968751E-07	4.65159416762617E-07	592662.8125	6.03162006882485E-05
2	411	107.56685672842	0.535125732421875	0.535186767578125	8.99353027343749E-07	4.81321819734148E-07	595079.75	6.04060987825505E-05
2	412	107.667564728166	0.545196533203125	0.545196533203125	9.173583984375E-07	5.00140572512464E-07	594311.375	6.04975757596549E-05
2	413	107.768272727911	0.555267333984375	0.555206298828125	9.429931640625E-07	5.23555740983284E-07	588770.25	6.05912537139375E-05
2	414	107.868980727657	0.565338134765625	0.5653076171875	9.765625E-07	5.5205816806847E-07	578875.0625	6.06879075348843E-05
2	415	107.969688727403	0.575408935546875	0.57537841796875	1.025390625E-06	5.8998762142437E-07	561131	6.07887159276288E-05
2	416	108.070396727148	0.585479736328125	0.585479736328125	1.0943603515625E-06	6.40725772882433E-07	534997.25	6.08954542258289E-05
2	417	108.171104726894	0.595550537109375	0.59552001953125	1.19140625E-06	7.09506252860592E-07	499846.3125	6.10105525993276E-05
2	418	108.27181272664	0.605621337890625	0.605621337890625	1.32598876953125E-06	8.03047043973493E-07	456731.90625	6.11373106949031E-05
2	419	108.372520726386	0.615692138671875	0.61566162109375	1.5069580078125E-06	9.27776170556172E-07	408546	6.12799631198868E-05
2	420	108.473228726131	0.625762939453125	0.625732421875	1.7437744140625E-06	1.09113614144007E-06	358837.9375	6.14436503383331E-05
2	421	108.573936725877	0.635833740234375	0.635772705078125	2.04071044921875E-06	1.29742795706989E-06	311544.8125	6.16342149442062E-05
2	422	108.674644725623	0.645904541015625	0.645843505859375	2.3974609375E-06	1.54838448906958E-06	269386.46875	6.18576959823258E-05
2	423	108.775352725369	0.655975341796875	0.65594482421875	2.80242919921875E-06	1.83823897259572E-06	234062.9375	6.21195285930298E-05
2	424	108.876060725114	0.666046142578125	0.6658935546875	3.23822021484375E-06	2.15630984712334E-06	205635.65625	6.24237000010908E-05
2	425	108.97676872486	0.676116943359375	0.67608642578125	3.673095703125E-06	2.48333003582957E-06	184064.484375	6.27717090537772E-05
2	426	109.077476724606	0.686187744140625	0.686126708984375	4.078369140625E-06	2.79827781923814E-06	168235.5625	6.316202779999E-05
2	427	109.178184724352	0.696258544921875	0.696136474609375	4.42169189453125E-06	3.07810091726424E-06	157436.6875	6.3590043282602E-05
2	428	109.278892724097	0.706329345703125	0.706298828125	4.67803955078125E-06	3.30409397975018E-06	150981.796875	6.40482467133552E-05
2	429	109.379600723843	0.716400146484375	0.71630859375	4.83001708984375E-06	3.4597828744154E-06	148303.53125	6.45270192762837E-05
2	430	109.480308723589	0.726470947265625	0.726348876953125	4.88616943359375E-06	3.54906364918861E-06	148654.046875	6.50162692181766E-05
2	431	109.581016723335	0.736541748046875	0.7364501953125	4.86572265625E-06	3.5833622860082E-06	151354.75	6.55073163216002E-05
2	432	109.68172472308	0.746612548828125	0.74652099609375	4.7998046875E-06	3.58315492121619E-06	155531.53125	6.59940124023706E-05
2	433	109.782432722826	0.756683349609375	0.75714111328125	4.72076416015625E-06	3.5742846193898E-06	160385.296875	6.64734106976539E-05
2	434	109.883140722572	0.766754150390625	0.7672119140625	4.6563720703125E-06	3.57242402060365E-06	164766.03125	6.69455839670263E-05
2	435	109.983848722317	0.776824951171875	0.7769775390625	4.62860107421875E-06	3.59631894752965E-06	167864.453125	6.74131224513985E-05
2	436	110.084556722063	0.786895751953125	0.78704833984375	4.65484619140625E-06	3.66358904102526E-06	169081.5	6.7880580900237E-05
2	437	110.185264721809	0.796966552734375	0.797119140625	4.74761962890625E-06	3.78441859538725E-06	167898.6875	6.83540347381495E-05
2	438	110.285972721555	0.807037353515625	0.806884765625	4.913330078125E-06	3.964491043007E-06	164223.609375	6.88404979882762E-05
2	439	110.3866807213	0.817108154296875	0.81695556640625	5.1544189453125E-06	4.2109313653782E-06	158496.15625	6.93474503350444E-05
2	440	110.487388721046	0.827178955078125	0.82763671875	5.4534912109375E-06	4.51350979346898E-06	151762.734375	6.98816002113745E-05
2	441	110.588096720792	0.837249755859375	0.83709716796875	5.792236328125E-06	4.84866450278787E-06	144520.546875	7.04478661646135E-05
2	442	110.688804720538	0.847320556640625	0.84747314453125	6.1431884765625E-06	5.20618732480216E-06	137953.3125	7.10488675395027E-05
2	443	110.789512720283	0.857391357421875	0.85723876953125	6.4697265625E-06	5.54610051040072E-06	132500	7.16839786036871E-05
2	444	110.890220720029	0.867462158203125	0.86761474609375	6.7413330078125E-06	5.84887993682059E-06	128700.7734375	7.23492048564367E-05
2	445	110.990928719775	0.877532958984375	0.87738037109375	6.9244384765625E-06	6.07536640018225E-06	126707.8046875	7.30373285477981E-05
2	446	111.091636719521	0.887603759765625	0.8880615234375	7.0098876953125E-06	6.2252115640149E-06	126686.984375	7.37389782443643E-05
2	447	111.192344719266	0.897674560546875	0.8978271484375	6.988525390625E-06	6.2744875322096E-06	128471.625	7.44438584661111E-05
2	448	111.293052719012	0.907745361328125	0.90789794921875	6.890869140625E-06	6.25620577920927E-06	131753.765625	7.51427432987839E-05
2	449	111.393760718758	0.917816162109375	0.9173583984375	6.7352294921875E-06	6.17861905993777E-06	136203	7.58288661018014E-05
2	450	111.494468718504	0.927886962890625	0.92803955078125	6.5521240234375E-06	6.08063010076876E-06	141639.5	7.64979413361289E-05
2	451	111.595176718249	0.937957763671875	0.9381103515625	6.3629150390625E-06	5.96911650063703E-06	147434.046875	7.71482664276846E-05
2	452	111.695884717995	0.948028564453125	0.94818115234375	6.1798095703125E-06	5.8595787777449E-06	153432.09375	7.77798413764685E-05
2	453	111.796592717741	0.958099365234375	0.95855712890625	6.0089111328125E-06	5.75988451601006E-06	159522.609375	7.83935902290978E-05
2	454	111.897300717486	0.968170166015625	0.968017578125	5.8502197265625E-06	5.66311564398347E-06	165466.875	7.8990742622409E-05
2	455	111.998008717232	0.978240966796875	0.977783203125	5.7098388671875E-06	5.58298415853642E-06	171245.328125	7.95728410594165E-05
2	456	112.098716716978	0.988311767578125	0.98846435546875	5.584716796875E-06	5.52029359823791E-06	176994.53125	8.01415662863292E-05
2	457	112.199424716724	0.998382568359375	0.99822998046875	5.4718017578125E-06	5.46211640539696E-06	182431.6875	8.06983080110513E-05
2	458	112.300132716469	1.00845336914063	1.00860595703125	5.37109375E-06	5.41731697012438E-06	187784.09375	8.1244288594462E-05
2	459	112.400840716215	1.01852416992188	1.019287109375	5.279541015625E-06	5.38136782779475E-06	193063.59375	8.17805921542458E-05
2	460	112.501548715961	1.02859497070313	1.02874755859375	5.2001953125E-06	5.34968785359524E-06	197828.640625	8.23082882561721E-05
2	461	112.602256715707	1.03866577148438	1.03851318359375	5.126953125E-06	5.32440844835946E-06	202559.53125	8.28283009468578E-05
2	462	112.702964715452	1.04873657226563	1.04888916015625	5.059814453125E-06	5.30718443769729E-06	207297.96875	8.33412486827001E-05
2	463	112.803672715198	1.05880737304688	1.05926513671875	5.0018310546875E-06	5.29826547790435E-06	211775.46875	8.38478881632909E-05
2	464	112.904380714944	1.06887817382813	1.0687255859375	4.94293212890625E-06	5.28263763044379E-06	216212.890625	8.43486486701295E-05
2	465	113.00508871469	1.07894897460938	1.0784912109375	4.89288330078125E-06	5.27693146068486E-06	220420.390625	8.48439231049269E-05
2	466	113.105796714435	1.08901977539063	1.08917236328125	4.84710693359375E-06	5.2793348004343E-06	224705.65625	8.53343663038686E-05
2	467	113.206504714181	1.09909057617188	1.0992431640625	4.80438232421875E-06	5.28118425791035E-06	228800.109375	8.5820363892708E-05
2	468	113.307212713927	1.10916137695313	1.10931396484375	4.7650146484375E-06	5.28589725945494E-06	232803.890625	8.63022141857073E-05
2	469	113.407920713673	1.11923217773438	1.11907958984375	4.7283935546875E-06	5.29144836036721E-06	236672.265625	8.67802518769167E-05
2	470	113.508628713418	1.12930297851563	1.1297607421875	4.69268798828125E-06	5.30161469214363E-06	240749.171875	8.72546370374039E-05
2	471	113.609336713164	1.13937377929688	1.13922119140625	4.659423828125E-06	5.30811439602985E-06	244498.3125	8.77255515661091E-05
2	472	113.71004471291	1.14944458007813	1.1492919921875	4.6282958984375E-06	5.31926343683153E-06	248318.609375	8.81932282936759E-05
2	473	113.810752712655	1.15951538085938	1.15936279296875	4.59930419921875E-06	5.33226238985662E-06	252073.515625	8.86578709469177E-05
2	474	113.911460712401	1.16958618164063	1.16912841796875	4.5721435546875E-06	5.34542277819128E-06	255706.84375	8.91196905286051E-05
2	475	114.012168712147	1.17965698242188	1.18011474609375	4.547119140625E-06	5.36612196810893E-06	259530.21875	8.95788834895939E-05
2	476	114.112876711893	1.18972778320313	1.18927001953125	4.52362060546875E-06	5.3798062253918E-06	262902.25	9.00356317288242E-05
2	477	114.213584711638	1.19979858398438	1.1993408203125	4.50103759765625E-06	5.39827806278481E-06	266458.75	9.04900589375757E-05
2	478	114.314292711384	1.20986938476563	1.21002197265625	4.4793701171875E-06	5.42013640369987E-06	270132.1875	9.09422597032972E-05
2	479	114.41500071113	1.21994018554688	1.21978759765625	4.46044921875E-06	5.44080012332415E-06	273467.4375	9.13924159249291E-05
2	480	114.515708710876	1.23001098632813	1.23016357421875	4.44183349609375E-06	5.46418186786468E-06	276949.5	9.18406803975813E-05
2	481	114.616416710621	1.24008178710938	1.23992919921875	4.42596435546875E-06	5.48788193555083E-06	280148.9375	9.22872131923214E-05
2	482	114.717124710367	1.25015258789063	1.25	4.41162109375E-06	5.51452603758662E-06	283342.5625	9.27322180359624E-05
2	483	114.817832710113	1.26022338867188	1.26007080078125	4.3988037109375E-06	5.54280359210679E-06	286457.625	9.3175854999572E-05
2	484	114.918540709859	1.27029418945313	1.27044677734375	4.38720703125E-06	5.57371276954655E-06	289579.875	9.36182696023025E-05
2	485	115.019248709604	1.28036499023438	1.28021240234375	4.37652587890625E-06	5.60288253836916E-06	292517.96875	9.40595564316027E-05
2	486	115.11995670935	1.29043579101563	1.29058837890625	4.36614990234375E-06	5.63490220883978E-06	295589.5625	9.44997882470489E-05
2	487	115.220664709096	1.30050659179688	1.3006591796875	4.3572998046875E-06	5.6673616199987E-06	298501.21875	9.49390450841747E-05
2	488	115.321372708842	1.31057739257813	1.31011962890625	4.3499755859375E-06	5.6989879340108E-06	301178.625	9.53774942900054E-05
2	489	115.422080708587	1.32064819335938	1.32049560546875	4.3438720703125E-06	5.73606348552858E-06	303990.46875	9.5815266831778E-05
2	490	115.522788708333	1.33071899414063	1.33087158203125	4.33929443359375E-06	5.77504351895186E-06	306702.3125	9.62524936767295E-05
2	491	115.623496708079	1.34078979492188	1.34033203125	4.3353271484375E-06	5.81077756578452E-06	309165.15625	9.66892985161394E-05
2	492	115.724204707824	1.35086059570313	1.35101318359375	4.33319091796875E-06	5.85419775234186E-06	311782.53125	9.71257904893719E-05
2	493	115.82491270757	1.36093139648438	1.3604736328125	4.3310546875E-06	5.89228557146271E-06	314120.625	9.75620714598335E-05
2	494	115.925620707316	1.37100219726563	1.370849609375	4.3304443359375E-06	5.93638787904638E-06	316560.9375	9.79982141871005E-05
2	495	116.026328707062	1.38107299804688	1.3812255859375	4.33074951171875E-06	5.98174210608704E-06	318934.53125	9.84343350864947E-05
2	496	116.127036706807	1.39114379882813	1.39068603515625	4.3341064453125E-06	6.02738145971671E-06	320870.28125	9.88706451607868E-05
2	497	116.227744706553	1.40121459960938	1.40106201171875	4.33990478515625E-06	6.08047548666946E-06	322832.4375	9.93074208963662E-05
2	498	116.328452706299	1.41128540039063	1.41082763671875	4.34814453125E-06	6.13448264630279E-06	324466.59375	9.97448951238766E-05
2	499	116.429160706045	1.42135620117188	1.4215087890625	4.35943603515625E-06	6.19697630099836E-06	326076.3125	0.000100183358881623
2	500	116.52986870579	1.43142700195313	1.43157958984375	4.37408447265625E-06	6.26184964858112E-06	327286.6875	0.000100623125035781
2	501	116.630576705536	1.44149780273438	1.441650390625	4.390869140625E-06	6.33009813100216E-06	328329.1875	0.0001010644773487
2	502	116.731284705282	1.45156860351563	1.451416015625	4.41192626953125E-06	6.40354028291767E-06	328975.59375	0.000101507735962514
2	503	116.831992705028	1.46163940429688	1.46148681640625	4.4390869140625E-06	6.48766672384227E-06	329231.40625	0.000101953417470213
2	504	116.932700704773	1.47171020507813	1.47186279296875	4.47265625E-06	6.58313638268737E-06	329080.25	0.000102402162156068
2	505	117.033408704519	1.48178100585938	1.48193359375	4.5135498046875E-06	6.68878101350856E-06	328329.9375	0.000102854646684136
2	506	117.134116704265	1.49185180664063	1.49139404296875	4.56268310546875E-06	6.80475841363659E-06	326867.78125	0.000103311671409756
2	507	117.234824704011	1.50192260742188	1.50146484375	4.62158203125E-06	6.93914262228645E-06	324881.15625	0.000103774138551671
2	508	117.335532703756	1.49185180664063	1.49139404296875	4.425048828125E-06	6.599491371162E-06	337034.5	0.00010422967170598
2	509	117.436240703502	1.48178100585938	1.48193359375	4.2822265625E-06	6.34597563475836E-06	346066.125	0.000104668120911811
2	510	117.536948703248	1.47171020507813	1.47125244140625	4.1680908203125E-06	6.13231350143906E-06	352979.96875	0.000105093626189046
2	511	117.637656702993	1.46163940429688	1.46148681640625	4.07470703125E-06	5.95513029111316E-06	358672.875	0.000105508683191147
2	512	117.738364702739	1.45156860351563	1.45111083984375	3.9959716796875E-06	5.79859761273838E-06	363143.4375	0.000105915074527729
2	513	117.839072702485	1.44149780273438	1.441650390625	3.92852783203125E-06	5.6635635701241E-06	366969.625	0.000106314102595206
2	514	117.939780702231	1.43142700195313	1.43157958984375	3.86932373046875E-06	5.53924473933876E-06	369981.84375	0.000106706756923813
2	515	118.040488701976	1.42135620117188	1.4215087890625	3.8165283203125E-06	5.42522820978775E-06	372461.25	0.000107093772385269
2	516	118.141196701722	1.41128540039063	1.41082763671875	3.76861572265625E-06	5.31686691829236E-06	374362.3125	0.000107475716504268
2	517	118.241904701468	1.40121459960938	1.40106201171875	3.7249755859375E-06	5.21892161486903E-06	376126.5	0.00010785304766614
2	518	118.342612701214	1.39114379882813	1.3916015625	3.68560791015625E-06	5.12889755555079E-06	377577.21875	0.000108226202428341
2	519	118.443320700959	1.38107299804688	1.38092041015625	3.64990234375E-06	5.04022455061204E-06	378344.5	0.000108595573692583
2	520	118.544028700705	1.37100219726563	1.37115478515625	3.616943359375E-06	4.95938911626581E-06	379092.125	0.000108961488876957
2	521	118.644736700451	1.36093139648438	1.361083984375	3.58673095703125E-06	4.88184196001384E-06	379477.59375	0.000109324217191897
2	522	118.745444700197	1.35086059570313	1.3507080078125	3.55743408203125E-06	4.80505468658521E-06	379686.03125	0.000109683955088258
2	523	118.846152699942	1.34078979492188	1.34063720703125	3.5302734375E-06	4.73281579616014E-06	379754.5	0.000110040855361149
2	524	118.946860699688	1.33071899414063	1.33087158203125	3.5040283203125E-06	4.66341134597315E-06	379811.90625	0.000110395056253765
2	525	119.047568699434	1.32064819335938	1.32080078125	3.47869873046875E-06	4.59466764368699E-06	379682.4375	0.00011074666690547
2	526	119.14827669918	1.31057739257813	1.31103515625	3.45489501953125E-06	4.52948870588443E-06	379471.78125	0.000111095796455629
2	527	119.248984698925	1.30050659179688	1.3006591796875	3.4332275390625E-06	4.46545891463757E-06	378844.46875	0.000111442641355097
2	528	119.349692698671	1.29043579101563	1.290283203125	3.4124755859375E-06	4.40305984739098E-06	378107.6875	0.000111787354398984
2	529	119.450400698417	1.28036499023438	1.28021240234375	3.39263916015625E-06	4.34329831477953E-06	377350.03125	0.000112130015622824
2	530	119.551108698162	1.27029418945313	1.27044677734375	3.3740234375E-06	4.28651719630579E-06	376537.625	0.000112470748717897
2	531	119.651816697908	1.26022338867188	1.26007080078125	3.3544921875E-06	4.22689754486782E-06	375636.84375	0.000112809553684201
2	532	119.752524697654	1.25015258789063	1.25	3.33465576171875E-06	4.16831971961074E-06	374851.28125	0.000113146379590034
2	533	119.8532326974	1.24008178710938	1.23992919921875	3.3154296875E-06	4.1108978621196E-06	373987.46875	0.000113481233711354
2	534	119.953940697145	1.23001098632813	1.2298583984375	3.2977294921875E-06	4.05574019168853E-06	372940.96875	0.00011381423973944
2	535	120.054648696891	1.21994018554688	1.21978759765625	3.2806396484375E-06	4.00168346459395E-06	371813.96875	0.000114145484985784
2	536	120.155356696637	1.20986938476563	1.21002197265625	3.26324462890625E-06	3.94859762309352E-06	370803.34375	0.000114474991278257
2	537	120.256064696383	1.19979858398438	1.199951171875	3.2464599609375E-06	3.89559363611625E-06	369618.34375	0.000114802780444734
2	538	120.356772696128	1.18972778320313	1.18988037109375	3.22906494140625E-06	3.84220084015396E-06	368490.71875	0.000115128852485213
2	539	120.457480695874	1.17965698242188	1.17950439453125	3.21136474609375E-06	3.78781874132983E-06	367290.71875	0.000115453156467993
2	540	120.55818869562	1.16958618164063	1.16973876953125	3.1939697265625E-06	3.73611010218156E-06	366233.53125	0.000115775685117114
2	541	120.658896695366	1.15951538085938	1.15966796875	3.17718505859375E-06	3.68447967957763E-06	364998.5625	0.000116096503916197
2	542	120.759604695111	1.14944458007813	1.14990234375	3.16131591796875E-06	3.63520439350395E-06	363741.6875	0.0001164156710729
2	543	120.860312694857	1.13937377929688	1.1395263671875	3.14544677734375E-06	3.58431952918181E-06	362278.0625	0.000116733237518929
2	544	120.961020694603	1.12930297851563	1.12884521484375	3.13079833984375E-06	3.53418658960436E-06	360561.46875	0.000117049276013859
2	545	121.061728694349	1.11923217773438	1.119384765625	3.11614990234375E-06	3.48817070516816E-06	359220.46875	0.000117363830213435
2	546	121.162436694094	1.10916137695313	1.10931396484375	3.10150146484375E-06	3.44053864864691E-06	357670	0.000117676914669573
2	547	121.26314469384	1.09909057617188	1.09893798828125	3.08685302734375E-06	3.39225994139269E-06	356005.9375	0.000117988522106316
2	548	121.363852693586	1.08901977539063	1.0888671875	3.07281494140625E-06	3.34588730765972E-06	354354.9375	0.000118298688903451
2	549	121.464560693331	1.07894897460938	1.0791015625	3.05938720703125E-06	3.30138936988078E-06	352718.21875	0.000118607473268639
2	550	121.565268693077	1.06887817382813	1.0693359375	3.0474853515625E-06	3.25878545481828E-06	350891.25	0.000118914977065288
2	551	121.665976692823	1.05880737304688	1.05926513671875	3.03558349609375E-06	3.21548759529833E-06	348949.4375	0.000119221280328929
2	552	121.766684692569	1.04873657226563	1.04827880859375	3.02276611328125E-06	3.1687015962234E-06	346794.5625	0.000119526346679777
2	553	121.867392692314	1.03866577148438	1.0382080078125	3.01025390625E-06	3.12526958623494E-06	344890.53125	0.000119830132462084
2	554	121.96810069206	1.02859497070313	1.02874755859375	2.9962158203125E-06	3.08234962176357E-06	343348.96875	0.000120132579468191
2	555	122.068808691806	1.01852416992188	1.01837158203125	2.98187255859375E-06	3.03665433420974E-06	341520.84375	0.000120433600386605
2	556	122.169516691552	1.00845336914063	1.00830078125	2.96539306640625E-06	2.99000794257154E-06	340022.65625	0.000120733071526047
2	557	122.270224691297	0.998382568359375	0.99822998046875	2.9473876953125E-06	2.94217079499504E-06	338682.96875	0.000121030803711619
2	558	122.370932691043	0.988311767578125	0.9881591796875	2.92755126953125E-06	2.89288641397434E-06	337537.8125	0.000121326629596297
2	559	122.471640690789	0.978240966796875	0.97808837890625	2.90374755859375E-06	2.84012162410363E-06	336836.59375	0.000121620258141775
2	560	122.572348690535	0.968170166015625	0.96832275390625	2.87261962890625E-06	2.78162269751192E-06	337087.03125	0.000121911121823359
2	561	122.67305669028	0.958099365234375	0.95855712890625	2.83203125E-06	2.71466365120432E-06	338469.84375	0.00012219836935401
2	562	122.773764690026	0.948028564453125	0.94818115234375	2.77923583984375E-06	2.6352188342571E-06	341166.15625	0.000122480923891999
2	563	122.874472689772	0.937957763671875	0.93780517578125	2.7081298828125E-06	2.5396982437087E-06	346292.53125	0.000122757235658355
2	564	122.975180689518	0.927886962890625	0.92803955078125	2.61322021484375E-06	2.42517171500367E-06	355132.5625	0.000123025180073455
2	565	123.075888689263	0.917816162109375	0.91827392578125	2.486572265625E-06	2.28335443352989E-06	369293.09375	0.00012328197772149
2	566	123.176596689009	0.907745361328125	0.9075927734375	2.3175048828125E-06	2.10335065276013E-06	391624.96875	0.000123523888760246
2	567	123.277304688755	0.897674560546875	0.8978271484375	2.09686279296875E-06	1.88262026767916E-06	428176.40625	0.00012374616926536
2	568	123.3780126885	0.887603759765625	0.88775634765625	1.8182373046875E-06	1.6141516425705E-06	488251.09375	0.000123943304060958
2	569	123.478720688246	0.877532958984375	0.87738037109375	1.4788818359375E-06	1.29754187128128E-06	593272.8125	0.000124109326861799
2	570	123.579428687992	0.867462158203125	0.8673095703125	1.08917236328125E-06	9.44649571010814E-07	796301.5	0.000124238635180518
2	571	123.680136687738	0.857391357421875	0.85723876953125	6.6192626953125E-07	5.67428855902108E-07	1295066.875	0.000124326819786802
2	572	123.780844687483	0.847320556640625	0.84747314453125	2.288818359375E-07	1.93971203543697E-07	3702666.75	0.000124371668789536
2	573	123.881552687229	0.837249755859375	0.83740234375	-1.85546875000001E-07	-1.55377378519006E-07	-4513158	0.00012437385157682
2	574	123.982260686975	0.827178955078125	0.82763671875	-5.46874999999999E-07	-4.52613790002943E-07	-1513393	0.000124336977023631
2	575	124.082968686721	0.817108154296875	0.81756591796875	-8.32214355468749E-07	-6.80390030538547E-07	-982398.3125	0.000124267535284162
2	576	124.183676686466	0.807037353515625	0.806884765625	-1.0223388671875E-06	-8.24909704988386E-07	-789253.6875	0.000124174141092226
2	577	124.284384686212	0.796966552734375	0.79742431640625	-1.1199951171875E-06	-8.93111291588866E-07	-711989.125	0.000124066267744638
2	578	124.385092685958	0.786895751953125	0.78704833984375	-1.1383056640625E-06	-8.95901564490487E-07	-691420.9375	0.000123952559079044
2	579	124.485800685704	0.776824951171875	0.7769775390625	-1.103515625E-06	-8.57406860177434E-07	-704092.9375	0.000123839679872617
2	580	124.586508685449	0.766754150390625	0.76629638671875	-1.04339599609375E-06	-7.99550548435946E-07	-734425.3125	0.000123731573694386
2	581	124.687216685195	0.756683349609375	0.75714111328125	-9.857177734375E-07	-7.46327430078964E-07	-768111.5	0.000123629390145652
2	582	124.787924684941	0.746612548828125	0.746490478515625	-9.5245361328125E-07	-7.10997539954406E-07	-783755.1875	0.000123531805002131
2	583	124.888632684687	0.736541748046875	0.736480712890625	-9.60693359375001E-07	-7.07532137766975E-07	-766613.75	0.000123435471323319
2	584	124.989340684432	0.726470947265625	0.7264404296875	-1.02630615234375E-06	-7.45550266856299E-07	-707820.4375	0.000123335412354209
2	585	125.090048684178	0.716400146484375	0.716339111328125	-1.16058349609375E-06	-8.31371323783969E-07	-617223.25	0.000123225298011675
2	586	125.190756683924	0.706329345703125	0.706329345703125	-1.36627197265625E-06	-9.65037997957552E-07	-516975.65625	0.000123098056064919
2	587	125.291464683669	0.696258544921875	0.696197509765625	-1.63909912109375E-06	-1.14113674953842E-06	-424744	0.000122946716146544
2	588	125.392172683415	0.686187744140625	0.6861572265625	-1.96075439453125E-06	-1.34538584006805E-06	-349945.53125	0.000122765457490459
2	589	125.492880683161	0.676116943359375	0.67608642578125	-2.30560302734375E-06	-1.5587868347211E-06	-293236.28125	0.000122550627565943
2	590	125.593588682907	0.666046142578125	0.666015625	-2.640380859375E-06	-1.7585349496585E-06	-252242.25	0.000122301571536809
2	591	125.694296682652	0.655975341796875	0.6558837890625	-2.9315185546875E-06	-1.92273546417709E-06	-223735.171875	0.000122021010611206
2	592	125.795004682398	0.645904541015625	0.64581298828125	-3.145751953125E-06	-2.03156741918065E-06	-205296.859375	0.000121714998385869
2	593	125.895712682144	0.635833740234375	0.635772705078125	-3.26324462890625E-06	-2.07468178814452E-06	-194828.40625	0.000121392273285892
2	594	125.99642068189	0.625762939453125	0.625762939453125	-3.28125E-06	-2.05328456104326E-06	-190708.703125	0.000121062737889588
2	595	126.097128681635	0.615692138671875	0.615692138671875	-3.212890625E-06	-1.97815143110347E-06	-191631.84375	0.000120735727250576
2	596	126.197836681381	0.605621337890625	0.6055908203125	-3.08258056640625E-06	-1.86678244062932E-06	-196455.8125	0.000120418728329241
2	597	126.298544681127	0.595550537109375	0.595458984375	-2.9180908203125E-06	-1.73760338384454E-06	-204057.734375	0.000120116572361439
2	598	126.399252680873	0.585479736328125	0.585479736328125	-2.74169921875E-06	-1.605209263289E-06	-213546.3125	0.000119831573101692
2	599	126.499960680618	0.575408935546875	0.57537841796875	-2.56683349609375E-06	-1.47690059293382E-06	-224158.84375	0.000119564268970862
2	600	126.600668680364	0.565338134765625	0.56536865234375	-2.40203857421875E-06	-1.35803725243022E-06	-235370.359375	0.000119314070616383
2	601	126.70137668011	0.555267333984375	0.55523681640625	-2.2503662109375E-06	-1.24948610391584E-06	-246731.765625	0.000119079799333122
2	602	126.802084679856	0.545196533203125	0.545166015625	-2.11212158203125E-06	-1.15145689960627E-06	-258112.984375	0.000118860130896792
2	603	126.902792679601	0.535125732421875	0.535125732421875	-1.9866943359375E-06	-1.06313120795676E-06	-269354.84375	0.000118653741083108
2	604	127.003500679347	0.525054931640625	0.5250244140625	-1.87408447265625E-06	-9.83940026344499E-07	-280149.8125	0.000118459334771615
2	605	127.104208679093	0.514984130859375	0.514984130859375	-1.77337646484375E-06	-9.13260691959294E-07	-290397.53125	0.00011827566777356
2	606	127.204916678838	0.504913330078125	0.504913330078125	-1.683349609375E-06	-8.49945593017765E-07	-299945.625	0.000118101612315513
2	607	127.305624678584	0.494842529296875	0.4947509765625	-1.602783203125E-06	-7.92978539720934E-07	-308682.40625	0.000117936142487451
2	608	127.40633267833	0.484771728515625	0.484710693359375	-1.52984619140625E-06	-7.41532801384892E-07	-316836.25	0.000117778399726376
2	609	127.507040678076	0.474700927734375	0.474639892578125	-1.4630126953125E-06	-6.94404150181072E-07	-324426.375	0.000117627700092271
2	610	127.607748677821	0.464630126953125	0.464691162109375	-1.40228271484375E-06	-6.51628397463355E-07	-331381.9375	0.000117483417852782
2	611	127.708456677567	0.454559326171875	0.45458984375	-1.34613037109375E-06	-6.11937196026702E-07	-337701.1875	0.000117345021863002
2	612	127.809164677313	0.444488525390625	0.444488525390625	-1.2933349609375E-06	-5.74872501601931E-07	-343676.28125	0.000117212119221222
2	613	127.909872677059	0.434417724609375	0.434417724609375	-1.2457275390625E-06	-5.41166116363456E-07	-348726.125	0.000117084266094025
2	614	128.010580676804	0.424346923828125	0.424407958984375	-1.2017822265625E-06	-5.10045936152892E-07	-353148.8125	0.000116961025923956
2	615	128.11128867655	0.414276123046875	0.414276123046875	-1.16058349609375E-06	-4.80801986668666E-07	-356955.0625	0.000116842071292922
2	616	128.211996676296	0.404205322265625	0.4041748046875	-1.1224365234375E-06	-4.53660561561264E-07	-360087	0.000116727111162618
2	617	128.312704676042	0.394134521484375	0.394134521484375	-1.08612060546875E-06	-4.28077640890479E-07	-362882.8125	0.000116615898150485
2	618	128.413412675787	0.384063720703125	0.384063720703125	-1.05224609375E-06	-4.0412953694613E-07	-364994.21875	0.000116508221253753
2	619	128.514120675533	0.373992919921875	0.37396240234375	-1.019287109375E-06	-3.81175055963467E-07	-366886.25	0.000116403913125396
2	620	128.614828675279	0.363922119140625	0.363922119140625	-9.8846435546875E-07	-3.59724026566255E-07	-368169.21875	0.000116302813694347
2	621	128.715536675025	0.353851318359375	0.35394287109375	-9.600830078125E-07	-3.39814505423419E-07	-368658.625	0.000116204697405919
2	622	128.81624467477	0.343780517578125	0.343841552734375	-9.3414306640625E-07	-3.21197177299837E-07	-368082.34375	0.000116109316877555
2	623	128.916952674516	0.333709716796875	0.33380126953125	-9.10339355468751E-07	-3.0387244009944E-07	-366677.84375	0.00011601643927861
2	624	129.017660674262	0.323638916015625	0.323699951171875	-8.868408203125E-07	-2.87070321292049E-07	-365003.46875	0.000115925948193762
2	625	129.118368674007	0.313568115234375	0.3135986328125	-8.65478515625E-07	-2.71412886831968E-07	-362341.3125	0.000115837705379818
2	626	129.219076673753	0.303497314453125	0.303497314453125	-8.44726562500001E-07	-2.56372231888236E-07	-359284.6875	0.000115751594421454
2	627	129.319784673499	0.293426513671875	0.29339599609375	-8.258056640625E-07	-2.42288081153674E-07	-355284.5625	0.000115667477075476
2	628	129.420492673245	0.283355712890625	0.283294677734375	-8.09326171875E-07	-2.29277787866522E-07	-350037.71875	0.000115585142339114
2	629	129.52120067299	0.273284912109375	0.273284912109375	-7.94372558593751E-07	-2.17090018850286E-07	-344026.15625	0.000115504386485554
2	630	129.621908672736	0.263214111328125	0.26324462890625	-7.8155517578125E-07	-2.05740207093186E-07	-336821.5625	0.000115425034891814
2	631	129.722616672482	0.253143310546875	0.25311279296875	-7.70263671875E-07	-1.94963575950169E-07	-328605.40625	0.000115346891107038
2	632	129.823324672228	0.243072509765625	0.243072509765625	-7.5958251953125E-07	-1.84633634603415E-07	-320008.03125	0.000115269860543776
2	633	129.924032671973	0.233001708984375	0.2330322265625	-7.51342773437499E-07	-1.75087080833691E-07	-310154.34375	0.000115193775855005
2	634	130.024740671719	0.222930908203125	0.222930908203125	-7.43713378906249E-07	-1.65796691931064E-07	-299753.8125	0.000115118491521571
2	635	130.125448671465	0.212860107421875	0.212860107421875	-7.3822021484375E-07	-1.57137634460014E-07	-288342.3125	0.000115043876576237
2	636	130.226156671211	0.202789306640625	0.20281982421875	-7.3516845703125E-07	-1.4910673939994E-07	-275882.125	0.000114969683636446
2	637	130.326864670956	0.192718505859375	0.192718505859375	-7.3516845703125E-07	-1.41680558840562E-07	-262141.96875	0.000114895643491764
2	638	130.427572670702	0.182647705078125	0.182708740234375	-7.37609863281249E-07	-1.34767773829481E-07	-247703.765625	0.00011482148693176
2	639	130.528280670448	0.172576904296875	0.172576904296875	-7.4310302734375E-07	-1.28242419350499E-07	-232238.203125	0.00011474692291813
2	640	130.628988670194	0.162506103515625	0.1624755859375	-7.51953125E-07	-1.2217402911574E-07	-216071.4375	0.000114671645860653
2	641	130.729696669939	0.152435302734375	0.1524658203125	-7.6507568359375E-07	-1.16647882464349E-07	-199282.015625	0.000114595255581662
2	642	130.830404669685	0.142364501953125	0.142425537109375	-7.83691406250001E-07	-1.11617666220809E-07	-181736.765625	0.000114517264591996
2	643	130.931112669431	0.132293701171875	0.132354736328125	-8.087158203125E-07	-1.07037365637552E-07	-163660.375	0.000114437083539087
2	644	131.031820669176	0.122222900390625	0.122283935546875	-8.404541015625E-07	-1.02774038168718E-07	-145497.453125	0.000114354043034837
2	645	131.132528668922	0.112152099609375	0.112213134765625	-8.795166015625E-07	-9.86933130775469E-08	-127585.015625	0.000114267437311355
2	646	131.233236668668	0.102081298828125	0.102203369140625	-9.27734375E-07	-9.48175724602152E-08	-110164.4765625	0.000114176429633517
2	647	131.333944668414	0.092010498046875	0.092041015625	-9.857177734375E-07	-9.07264592342472E-08	-93374.6171875	0.00011408008140279
2	648	131.434652668159	0.081939697265625	0.082000732421875	-1.0552978515625E-06	-8.65351950096738E-08	-77703.875	0.000113977308501489
2	649	131.535360667905	0.071868896484375	0.071929931640625	-1.1431884765625E-06	-8.22294694557968E-08	-62920.44921875	0.00011386660480639
2	650	131.636068667651	0.061798095703125	0.061859130859375	-1.253662109375E-06	-7.75504460648335E-08	-49342.75	0.000113745918497443
2	651	131.736776667397	0.051727294921875	0.051727294921875	-1.3909912109375E-06	-7.19522148528995E-08	-37187.36328125	0.000113612746645231
2	652	131.837484667142	0.041656494140625	0.041705322265625	-1.5576171875E-06	-6.49609219749436E-08	-26775.080078125	0.000113464273454156
2	653	131.938192666888	0.031585693359375	0.0316741943359375	-1.74957275390625E-06	-5.54163079868886E-08	-18103.9609375	0.000113297741336282
2	654	132.038900666634	0.021514892578125	0.02159423828125	-1.95220947265625E-06	-4.2156475643651E-08	-11061.4345703125	0.000113111345854122
2	655	132.13960866638	0.011444091796875	0.0115264892578125	-2.14935302734375E-06	-2.47744935677474E-08	-5362.77197265625	0.000112904810521286
2	656	132.240316666125	0.001373291015625	0.00146484375	-2.3199462890625E-06	-3.39835848350845E-09	-631.412841796875	0.000112679765152279
2	657	132.341024665871	-0.008697509765625	-0.0086090087890625	-2.4468994140625E-06	2.10653787746651E-08	3518.333984375	0.000112439738586545
2	658	132.441732665617	-0.018768310546875	-0.0186767578125	-2.52197265625E-06	4.71022723047554E-08	7405.61474609375	0.000112189532956108
2	659	132.542440665363	-0.028839111328125	-0.0287200927734375	-2.54638671875E-06	7.31324618641338E-08	11278.7626953125	0.000111934321466833
2	660	132.643148665108	-0.038909912109375	-0.0387664794921875	-2.53021240234375E-06	9.80874332867643E-08	15321.43359375	0.000111678695247974
2	661	132.743856664854	-0.048980712890625	-0.048846435546875	-2.4859619140625E-06	1.21430375088494E-07	19648.908203125	0.000111426110379398
2	662	132.8445646646	-0.059051513671875	-0.0589599609375	-2.42523193359375E-06	1.42991581242313E-07	24311.060546875	0.000111178807856049
2	663	132.945272664345	-0.069122314453125	-0.06903076171875	-2.3565673828125E-06	1.62675647175092E-07	29292.9296875	0.000110938031866681
2	664	133.045980664091	-0.079193115234375	-0.079071044921875	-2.28729248046875E-06	1.80858592102595E-07	34569.71484375	0.000110704189864919
2	665	133.146688663837	-0.089263916015625	-0.08917236328125	-2.22076416015625E-06	1.98030789988479E-07	40153.91015625	0.000110477194539271
2	666	133.247396663583	-0.099334716796875	-0.099212646484375	-2.1600341796875E-06	2.14302716017301E-07	45931.0546875	0.000110256602056324
2	667	133.348104663328	-0.109405517578125	-0.109344482421875	-2.10540771484375E-06	2.30214709517895E-07	51935.0625	0.000110041823063511
2	668	133.448812663074	-0.119476318359375	-0.119293212890625	-2.059326171875E-06	2.45663613895886E-07	57928.27734375	0.000109832108137198
2	669	133.54952066282	-0.129547119140625	-0.129425048828125	-2.01904296875E-06	2.61314738736473E-07	64102.17578125	0.000109626744233537
2	670	133.650228662566	-0.139617919921875	-0.13946533203125	-1.9842529296875E-06	2.76734482440588E-07	70286.0703125	0.000109425163827837
2	671	133.750936662311	-0.149688720703125	-0.149627685546875	-1.95404052734375E-06	2.92378558697237E-07	76573.484375	0.000109226857603062
2	672	133.851644662057	-0.159759521484375	-0.159637451171875	-1.929931640625E-06	3.08089369127629E-07	82716.6328125	0.000109031279862393
2	673	133.952352661803	-0.169830322265625	-0.169677734375	-1.91009521484375E-06	3.241005970267E-07	88832.0859375	0.000108837921288796
2	674	134.053060661549	-0.179901123046875	-0.179779052734375	-1.8951416015625E-06	3.40706748147568E-07	94863.125	0.000108646316220984
2	675	134.153768661294	-0.189971923828125	-0.189788818359375	-1.8853759765625E-06	3.57823267904678E-07	100663.6484375	0.000108455948065966
2	676	134.25447666104	-0.200042724609375	-0.19989013671875	-1.8804931640625E-06	3.75892028614544E-07	106296.6640625	0.000108266322058626
2	677	134.355184660786	-0.189971923828125	-0.1898193359375	-1.66046142578125E-06	3.15187691057872E-07	114317.21875	0.000108088017441332
