Potential - OCP -0.0248871747185202 V
Time (s)	WE(1).Potential (V)
7.22631398175531	-0.02275390625
7.32631398150284	-0.02276611328125
7.42631398125036	-0.0227783203125
7.52631398099788	-0.0227935791015625
7.62631398074541	-0.0228057861328125
7.72631398049293	-0.0228179931640625
7.82631398024046	-0.0228302001953125
7.92631397998798	-0.0228424072265625
8.02631397973551	-0.022857666015625
8.12631397948303	-0.022869873046875
8.22631397923055	-0.022882080078125
8.32631397897808	-0.022894287109375
8.4263139787256	-0.022906494140625
8.52631397847313	-0.0229156494140625
8.62631397822065	-0.0229278564453125
8.72631397796818	-0.022943115234375
8.8263139777157	-0.0229522705078125
8.92631397746322	-0.0229644775390625
9.02631397721075	-0.0229766845703125
9.12631397695827	-0.022991943359375
9.2263139767058	-0.023004150390625
9.32631397645332	-0.0230133056640625
9.42631397620084	-0.0230224609375
9.52631397594837	-0.0230316162109375
9.62631397569589	-0.023040771484375
9.72631397544342	-0.023052978515625
9.82631397519094	-0.023065185546875
9.92631397493847	-0.023077392578125
10.026313974686	-0.023089599609375
10.1263139744335	-0.023101806640625
10.226313974181	-0.0231109619140625
10.3263139739286	-0.0231201171875
10.4263139736761	-0.02313232421875
10.5263139734236	-0.0231414794921875
10.6263139731711	-0.0231536865234375
10.7263139729187	-0.023162841796875
10.8263139726662	-0.0231719970703125
10.9263139724137	-0.02318115234375
11.0263139721612	-0.023193359375
11.1263139719088	-0.0232025146484375
11.2263139716563	-0.0232086181640625
11.3263139714038	-0.0232208251953125
11.4263139711513	-0.02322998046875
11.5263139708989	-0.0232391357421875
11.6263139706464	-0.023248291015625
11.7263139703939	-0.0232574462890625
11.8263139701414	-0.0232666015625
11.926313969889	-0.0232757568359375
12.0263139696365	-0.023284912109375
12.126313969384	-0.0232940673828125
12.2263139691315	-0.02330322265625
12.326313968879	-0.0233123779296875
12.4263139686266	-0.023321533203125
12.5263139683741	-0.0233306884765625
12.6263139681216	-0.02333984375
12.7263139678691	-0.0233489990234375
12.8263139676167	-0.0233612060546875
12.9263139673642	-0.023370361328125
13.0263139671117	-0.02337646484375
13.1263139668592	-0.0233856201171875
13.2263139666068	-0.023394775390625
13.3263139663543	-0.0234039306640625
13.4263139661018	-0.0234130859375
13.5263139658493	-0.02342529296875
13.6263139655969	-0.0234344482421875
13.7263139653444	-0.023443603515625
13.8263139650919	-0.0234527587890625
13.9263139648394	-0.0234619140625
14.026313964587	-0.0234710693359375
14.1263139643345	-0.0234832763671875
14.226313964082	-0.0234954833984375
14.3263139638295	-0.023504638671875
14.4263139635771	-0.023516845703125
14.5263139633246	-0.0235260009765625
14.6263139630721	-0.02353515625
14.7263139628196	-0.02354736328125
14.8263139625672	-0.0235565185546875
14.9263139623147	-0.0235687255859375
15.0263139620622	-0.0235809326171875
15.1263139618097	-0.0235931396484375
15.2263139615573	-0.023602294921875
15.3263139613048	-0.023614501953125
15.4263139610523	-0.023626708984375
15.5263139607998	-0.023638916015625
15.6263139605473	-0.0236480712890625
15.7263139602949	-0.0236602783203125
15.8263139600424	-0.0236724853515625
15.9263139597899	-0.0236846923828125
16.0263139595374	-0.02369384765625
16.126313959285	-0.0237060546875
16.2263139590325	-0.0237152099609375
16.32631395878	-0.0237274169921875
16.4263139585275	-0.023736572265625
16.5263139582751	-0.023748779296875
16.6263139580226	-0.023760986328125
16.7263139577701	-0.0237701416015625
16.8263139575176	-0.0237823486328125
16.9263139572652	-0.0237945556640625
17.0263139570127	-0.0238037109375
17.1263139567602	-0.0238128662109375
17.2263139565077	-0.0238250732421875
17.3263139562553	-0.023834228515625
17.4263139560028	-0.0238433837890625
17.5263139557503	-0.0238525390625
17.6263139554978	-0.02386474609375
17.7263139552454	-0.0238739013671875
17.8263139549929	-0.023883056640625
17.9263139547404	-0.0238922119140625
18.0263139544879	-0.0239013671875
18.1263139542355	-0.0239105224609375
18.226313953983	-0.023919677734375
18.3263139537305	-0.0239288330078125
18.426313953478	-0.02393798828125
18.5263139532256	-0.0239471435546875
18.6263139529731	-0.023956298828125
18.7263139527206	-0.0239654541015625
18.8263139524681	-0.0239715576171875
18.9263139522157	-0.023980712890625
19.0263139519632	-0.0239898681640625
19.1263139517107	-0.0239959716796875
19.2263139514582	-0.024005126953125
19.3263139512057	-0.02401123046875
19.4263139509533	-0.0240203857421875
19.5263139507008	-0.0240264892578125
19.6263139504483	-0.02403564453125
19.7263139501958	-0.024041748046875
19.8263139499434	-0.0240478515625
19.9263139496909	-0.024053955078125
20.0263139494384	-0.02406005859375
20.1263139491859	-0.0240692138671875
20.2263139489335	-0.024072265625
20.326313948681	-0.0240814208984375
20.4263139484285	-0.02408447265625
20.526313948176	-0.024090576171875
20.6263139479236	-0.0240966796875
20.7263139476711	-0.024102783203125
20.8263139474186	-0.02410888671875
20.9263139471661	-0.024114990234375
21.0263139469137	-0.02412109375
21.1263139466612	-0.024127197265625
21.2263139464087	-0.02413330078125
21.3263139461562	-0.024139404296875
21.4263139459038	-0.0241424560546875
21.5263139456513	-0.0241485595703125
21.6263139453988	-0.024151611328125
21.7263139451463	-0.02415771484375
21.8263139448939	-0.0241607666015625
21.9263139446414	-0.0241668701171875
22.0263139443889	-0.0241729736328125
22.1263139441364	-0.024176025390625
22.226313943884	-0.02418212890625
22.3263139436315	-0.0241851806640625
22.426313943379	-0.0241912841796875
22.5263139431265	-0.0241943359375
22.626313942874	-0.024200439453125
22.7263139426216	-0.02420654296875
22.8263139423691	-0.0242095947265625
22.9263139421166	-0.0242156982421875
23.0263139418641	-0.02421875
23.1263139416117	-0.024224853515625
23.2263139413592	-0.0242279052734375
23.3263139411067	-0.0242340087890625
23.4263139408542	-0.0242401123046875
23.5263139406018	-0.0242431640625
23.6263139403493	-0.024249267578125
23.7263139400968	-0.0242523193359375
23.8263139398443	-0.0242584228515625
23.9263139395919	-0.0242645263671875
24.0263139393394	-0.024267578125
24.1263139390869	-0.024273681640625
24.2263139388344	-0.02427978515625
24.326313938582	-0.024285888671875
24.4263139383295	-0.0242919921875
24.526313938077	-0.024298095703125
24.6263139378245	-0.02430419921875
24.7263139375721	-0.024310302734375
24.8263139373196	-0.02431640625
24.9263139370671	-0.024322509765625
25.0263139368146	-0.02432861328125
25.1263139365622	-0.024334716796875
25.2263139363097	-0.0243408203125
25.3263139360572	-0.0243499755859375
25.4263139358047	-0.0243560791015625
25.5263139355523	-0.0243621826171875
25.6263139352998	-0.0243682861328125
25.7263139350473	-0.02437744140625
25.8263139347948	-0.024383544921875
25.9263139345423	-0.0243927001953125
26.0263139342899	-0.0243988037109375
26.1263139340374	-0.024407958984375
26.2263139337849	-0.0244140625
26.3263139335324	-0.0244232177734375
26.42631393328	-0.0244293212890625
26.5263139330275	-0.0244384765625
26.626313932775	-0.0244476318359375
26.7263139325225	-0.0244537353515625
26.8263139322701	-0.024462890625
26.9263139320176	-0.0244720458984375
27.0263139317651	-0.0244781494140625
27.1263139315126	-0.0244873046875
27.2263139312602	-0.024493408203125
27.3263139310077	-0.0245025634765625
27.4263139307552	-0.02451171875
27.5263139305027	-0.0245208740234375
27.6263139302503	-0.0245269775390625
27.7263139299978	-0.0245361328125
27.8263139297453	-0.024542236328125
27.9263139294928	-0.0245513916015625
28.0263139292404	-0.0245574951171875
28.1263139289879	-0.024566650390625
28.2263139287354	-0.0245758056640625
28.3263139284829	-0.0245819091796875
28.4263139282305	-0.024591064453125
28.526313927978	-0.02459716796875
28.6263139277255	-0.024603271484375
28.726313927473	-0.0246124267578125
28.8263139272206	-0.0246185302734375
28.9263139269681	-0.024627685546875
29.0263139267156	-0.0246337890625
29.1263139264631	-0.024639892578125
29.2263139262107	-0.0246490478515625
29.3263139259582	-0.0246551513671875
29.4263139257057	-0.0246612548828125
29.5263139254532	-0.0246673583984375
29.6263139252007	-0.024676513671875
29.7263139249483	-0.0246795654296875
29.8263139246958	-0.024688720703125
29.9263139244433	-0.02469482421875
30.0263139241908	-0.024700927734375
30.1263139239384	-0.02470703125
30.2263139236859	-0.024713134765625
30.3263139234334	-0.02471923828125
30.4263139231809	-0.0247283935546875
30.5263139229285	-0.0247314453125
30.626313922676	-0.024737548828125
30.7263139224235	-0.0247467041015625
30.826313922171	-0.0247528076171875
30.9263139219186	-0.024755859375
31.0263139216661	-0.024761962890625
31.1263139214136	-0.02476806640625
31.2263139211611	-0.024774169921875
31.3263139209087	-0.0247802734375
31.4263139206562	-0.024786376953125
31.5263139204037	-0.02479248046875
31.6263139201512	-0.0247955322265625
31.7263139198988	-0.0248016357421875
31.8263139196463	-0.0248077392578125
31.9263139193938	-0.024810791015625
32.0263139191413	-0.02481689453125
32.1263139188889	-0.0248199462890625
32.2263139186364	-0.0248260498046875
32.3263139183839	-0.0248291015625
32.4263139181314	-0.024835205078125
32.526313917879	-0.0248382568359375
32.6263139176265	-0.02484130859375
32.726313917374	-0.024847412109375
32.8263139171215	-0.0248504638671875
32.926313916869	-0.024853515625
33.0263139166166	-0.0248565673828125
33.1263139163641	-0.024859619140625
33.2263139161116	-0.0248626708984375
33.3263139158591	-0.02486572265625
33.4263139156067	-0.0248687744140625
33.5263139153542	-0.024871826171875
33.6263139151017	-0.0248748779296875
33.7263139148492	-0.0248779296875
33.8263139145968	-0.0248809814453125
33.9263139143443	-0.024884033203125
34.0263139140918	-0.0248870849609375
34.1263139138393	-0.0248870849609375
34.2263139135869	-0.02489013671875
34.3263139133344	-0.02489013671875
34.4263139130819	-0.0248931884765625
34.5263139128294	-0.024896240234375
34.626313912577	-0.024896240234375
34.7263139123245	-0.0248992919921875
34.826313912072	-0.0248992919921875
34.9263139118195	-0.02490234375
35.0263139115671	-0.02490234375
35.1263139113146	-0.0249053955078125
35.2263139110621	-0.0249053955078125
35.3263139108096	-0.0249053955078125
35.4263139105572	-0.024908447265625
35.5263139103047	-0.024908447265625
35.6263139100522	-0.024908447265625
35.7263139097997	-0.024908447265625
35.8263139095473	-0.0249114990234375
35.9263139092948	-0.0249114990234375
36.0263139090423	-0.0249114990234375
36.1263139087898	-0.02491455078125
36.2263139085373	-0.02491455078125
36.3263139082849	-0.02491455078125
36.4263139080324	-0.0249176025390625
36.5263139077799	-0.0249176025390625
36.6263139075274	-0.024920654296875
36.726313907275	-0.024920654296875
36.8263139070225	-0.0249237060546875
36.92631390677	-0.0249267578125
37.0263139065175	-0.0249298095703125
37.1263139062651	-0.0249298095703125
