Potential - Start -0.2 V, Upper Vertex 1.5 V, Lower Vertex -0.2 V, Stop -0.19 V; Scan - # end cross 5, Rate 0.1 Vps, Step 0.01 V 
Scan	Index	Time (s)	Potential applied (V)	WE(1).Potential (V)	WE(1).Current (A)	WE(1).Power (W)	WE(1).Resistance (Ω)	WE(1).Charge (C)
1	1	65.8425648337635	-0.189971923828125	-0.18975830078125	-2.11486816406251E-07	4.01313755560295E-08	897258.3125	0
1	2	65.9432728335092	-0.179901123046875	-0.17974853515625	-1.7669677734375E-07	3.17609867295232E-08	1017271.1875	-1.95465954533347E-08
1	3	66.043980833255	-0.169830322265625	-0.169708251953125	-1.495361328125E-07	2.53775152003755E-08	1134898	-3.59737271082849E-08
1	4	66.1446888330007	-0.159759521484375	-0.159637451171875	-1.26037597656251E-07	2.01203196326105E-08	1266586	-4.98499659329354E-08
1	5	66.2453968327465	-0.149688720703125	-0.149566650390625	-1.04675292968751E-07	1.56559316621951E-08	1428863	-6.14672828191942E-08
1	6	66.3461048324922	-0.139617919921875	-0.139556884765625	-8.48388671875006E-08	1.18398482129578E-08	1644964	-7.10100778178457E-08
1	7	66.4468128322379	-0.129547119140625	-0.129425048828125	-6.43920898437497E-08	8.33394953048128E-09	2009952.625	-7.85244580470135E-08
1	8	66.5475208319837	-0.119476318359375	-0.119384765625	-4.30297851562497E-08	5.13710052274519E-09	2774468.25	-8.3933578309825E-08
1	9	66.6482288317294	-0.109405517578125	-0.109344482421875	-2.01416015624997E-08	2.20237295067705E-09	5428788	-8.71145076075663E-08
1	10	66.7489368314751	-0.099334716796875	-0.099273681640625	7.32421875000028E-09	-7.27102156261594E-10	-13554167	-8.77599148907393E-08
1	11	66.8496448312209	-0.089263916015625	-0.08917236328125	3.96728515625E-08	-3.53772189320978E-09	-2247692.25	-8.53934238875809E-08
1	12	66.9503528309666	-0.079193115234375	-0.07916259765625	8.087158203125E-08	-6.40200426005322E-09	-978867.9375	-7.93235273022219E-08
1	13	67.0510608307123	-0.069122314453125	-0.069061279296875	1.3458251953125E-07	-9.29444077257813E-09	-513151.90625	-6.84745558032773E-08
1	14	67.1517688304581	-0.059051513671875	-0.05902099609375	2.06298828125E-07	-1.21759615723249E-08	-286094.6875	-5.1309815063405E-08
1	15	67.2524768302038	-0.048980712890625	-0.04881591796875	2.99682617187499E-07	-1.46292808977933E-08	-162892.0625	-2.58316266155134E-08
1	16	67.3531848299496	-0.038909912109375	-0.038739013671875	4.21752929687499E-07	-1.63382924966982E-08	-91852.390625	1.04955386603933E-08
1	17	67.4538928296953	-0.028839111328125	-0.0287139892578125	5.7586669921875E-07	-1.6535430802378E-08	-49862.21875	6.0729675510629E-08
1	18	67.554600829441	-0.018768310546875	-0.018621826171875	7.6141357421875E-07	-1.41789113783375E-08	-24456.9140625	1.28067085825023E-07
1	19	67.6553088291868	-0.008697509765625	-0.0086212158203125	9.71374511718751E-07	-8.37442915013753E-09	-8875.275390625	2.15319900576105E-07
1	20	67.7560168289325	0.001373291015625	0.00147705078125	1.19171142578125E-06	1.76021830444739E-09	1239.43676757813	3.24239920246328E-07
1	21	67.8567248286782	0.011444091796875	0.0115814208984375	1.4031982421875E-06	1.62510289669626E-08	8253.5888671875	4.54903982927135E-07
1	22	67.957432828424	0.021514892578125	0.0216522216796875	1.58294677734375E-06	3.42743149417402E-08	13678.4267578125	6.05268326125952E-07
1	23	68.0581408281697	0.031585693359375	0.0317047119140625	1.7138671875E-06	5.43376650341543E-08	18498.931640625	7.7127612030381E-07
1	24	68.1588488279154	0.041656494140625	0.041748046875	1.7913818359375E-06	7.47866906181116E-08	23304.94140625	9.47779426496709E-07
1	25	68.2595568276612	0.051727294921875	0.051727294921875	1.81671142578125E-06	9.39735613769699E-08	28473.041015625	1.12946133867808E-06
1	26	68.3602648274069	0.061798095703125	0.0618896484375	1.80145263671875E-06	1.11491267773545E-07	34355.4140625	1.31165040784254E-06
1	27	68.4609728271527	0.071868896484375	0.071929931640625	1.75933837890625E-06	1.26549082324345E-07	40884.6484375	1.4909504670868E-06
1	28	68.5616808268984	0.081939697265625	0.082000732421875	1.7022705078125E-06	1.39587427838705E-07	48171.390625	1.66525626354996E-06
1	29	68.6623888266441	0.092010498046875	0.09210205078125	1.63909912109375E-06	1.50964382328311E-07	56190.65625	1.83350755378342E-06
1	30	68.7630968263899	0.102081298828125	0.102142333984375	1.5753173828125E-06	1.60906594715016E-07	64839.2109375	1.99536634681863E-06
1	31	68.8638048261356	0.112152099609375	0.1121826171875	1.51519775390625E-06	1.69978846997765E-07	74038.2734375	2.15098611988651E-06
1	32	68.9645128258813	0.122222900390625	0.12225341796875	1.45965576171875E-06	1.78447905341272E-07	83754.9609375	2.30078194363159E-06
1	33	69.0652208256271	0.132293701171875	0.13232421875	1.40899658203125E-06	1.86444367500371E-07	93913.796875	2.44522993853025E-06
1	34	69.1659288253728	0.142364501953125	0.1424560546875	1.36444091796875E-06	1.94372859141367E-07	104406.171875	2.58488375948218E-06
1	35	69.2666368251186	0.152435302734375	0.1524658203125	1.32415771484375E-06	2.01888781248272E-07	115141.7421875	2.72026545644621E-06
1	36	69.3673448248643	0.162506103515625	0.16253662109375	1.28814697265625E-06	2.0937105205121E-07	126178.640625	2.85180544778996E-06
1	37	69.46805282461	0.172576904296875	0.17254638671875	1.25640869140625E-06	2.16788762941178E-07	137333.015625	2.97993392450735E-06
1	38	69.5687608243558	0.182647705078125	0.182708740234375	1.22802734375E-06	2.24371319745842E-07	148782.3125	3.10503514810989E-06
1	39	69.6694688241015	0.192718505859375	0.1927490234375	1.20208740234375E-06	2.31701164921105E-07	160345.28125	3.22740129377053E-06
1	40	69.7701768238472	0.202789306640625	0.202850341796875	1.17950439453125E-06	2.39262874401902E-07	171979.3125	3.34732385454117E-06
1	41	69.870884823593	0.212860107421875	0.212921142578125	1.1590576171875E-06	2.46787863034115E-07	183701.953125	3.46507977155852E-06
1	42	69.9715928233387	0.222930908203125	0.222991943359375	1.14013671875E-06	2.54241285801982E-07	195583.53125	3.58085344487336E-06
1	43	70.0723008230844	0.233001708984375	0.233001708984375	1.123046875E-06	2.61671857515466E-07	207472.828125	3.69481381312653E-06
1	44	70.1730088228302	0.243072509765625	0.243072509765625	1.10809326171875E-06	2.693469980386E-07	219361.0625	3.80716051040508E-06
1	45	70.2737168225759	0.253143310546875	0.25311279296875	1.0943603515625E-06	2.76996587444955E-07	231288.359375	3.9180631574709E-06
1	46	70.3744248223217	0.263214111328125	0.26318359375	1.0809326171875E-06	2.84483746781916E-07	243478.25	4.02759769713157E-06
1	47	70.4751328220674	0.273284912109375	0.273284912109375	1.06964111328125E-06	2.92316741479226E-07	255492.171875	4.13588759329286E-06
1	48	70.5758408218131	0.283355712890625	0.283355712890625	1.0595703125E-06	3.00235313943631E-07	267425.125	4.24310201196931E-06
1	49	70.6765488215589	0.293426513671875	0.293426513671875	1.0504150390625E-06	3.08219597400239E-07	279343.40625	4.34934827353572E-06
1	50	70.7772568213046	0.303497314453125	0.30352783203125	1.04156494140625E-06	3.16143939471658E-07	291415.1875	4.45468776888447E-06
1	51	70.8779648210503	0.313568115234375	0.31353759765625	1.03424072265625E-06	3.24273344176618E-07	303157.28125	4.55921281172778E-06
1	52	70.9786728207961	0.323638916015625	0.323760986328125	1.02752685546875E-06	3.32673124603389E-07	315087.59375	4.6630311771878E-06
1	53	71.0793808205418	0.333709716796875	0.333709716796875	1.021728515625E-06	3.40960724543038E-07	326612.90625	4.7662192628195E-06
1	54	71.1800888202876	0.343780517578125	0.343780517578125	1.01654052734375E-06	3.49466830584788E-07	338186.71875	4.86885437567253E-06
1	55	71.2807968200333	0.353851318359375	0.353851318359375	1.01165771484375E-06	3.57976404075089E-07	349773.78125	4.97098199048196E-06
1	56	71.381504819779	0.363922119140625	0.363983154296875	1.00830078125E-06	3.67004474810528E-07	360986.6875	5.07269533045474E-06
1	57	71.4822128195248	0.373992919921875	0.373992919921875	1.00555419921875E-06	3.76070147467544E-07	371927.1875	5.17410080647096E-06
1	58	71.5829208192705	0.384063720703125	0.384063720703125	1.00372314453125E-06	3.85493649446289E-07	382639.09375	5.27527572558029E-06
1	59	71.6836288190162	0.394134521484375	0.394134521484375	1.0015869140625E-06	3.94759950950174E-07	393510.09375	5.37625146534992E-06
1	60	71.784336818762	0.404205322265625	0.4041748046875	1.00067138671875E-06	4.04446126367475E-07	403903.65625	5.47707304576761E-06
1	61	71.8850448185077	0.414276123046875	0.41424560546875	9.99755859375E-07	4.14144437854702E-07	414346.78125	5.57780231247307E-06
1	62	71.9857528182534	0.424346923828125	0.424346923828125	9.9853515625E-07	4.23725310838563E-07	424969.4375	5.67842425880372E-06
1	63	72.0864608179992	0.434417724609375	0.43450927734375	9.9853515625E-07	4.33872770599919E-07	435146.71875	5.77898481424199E-06
1	64	72.1871688177449	0.444488525390625	0.4444580078125	9.9822998046875E-07	4.43671325456307E-07	445246.09375	5.87952990827034E-06
1	65	72.2878768174907	0.454559326171875	0.45458984375	9.9853515625E-07	4.53923945542556E-07	455256.71875	5.98007500229869E-06
1	66	72.3885848172364	0.464630126953125	0.46466064453125	9.98840332031251E-07	4.64121768573023E-07	465200.15625	6.0806510191469E-06
1	67	72.4892928169821	0.474700927734375	0.474639892578125	1.0003662109375E-06	4.74813703021937E-07	474466.15625	6.18131889495999E-06
1	68	72.5900008167279	0.484771728515625	0.484771728515625	1.00189208984375E-06	4.85688985918387E-07	483856.21875	6.28214093012502E-06
1	69	72.6907088164736	0.494842529296875	0.49481201171875	1.0040283203125E-06	4.96805228067387E-07	492826.78125	6.38314668321982E-06
1	70	72.7914168162193	0.504913330078125	0.5048828125	1.00616455078125E-06	5.07995196130651E-07	501789.5	6.48436798655894E-06
1	71	72.8921248159651	0.514984130859375	0.514984130859375	1.00921630859375E-06	5.19730349424208E-07	510281.25	6.58585076962481E-06
1	72	72.9928328157108	0.525054931640625	0.525054931640625	1.01226806640625E-06	5.31496311850788E-07	518691.59375	6.68764050715254E-06
1	73	73.0935408154565	0.535125732421875	0.535125732421875	1.01654052734375E-06	5.43976966582704E-07	526418.5	6.78979904478183E-06
1	74	73.1942488152023	0.545196533203125	0.545166015625	1.02020263671875E-06	5.56179770683229E-07	534370.3125	6.89235730533255E-06
1	75	73.294956814948	0.555267333984375	0.555267333984375	1.024169921875E-06	5.68688108160131E-07	542163.3125	6.99529937264742E-06
1	76	73.3956648146938	0.565338134765625	0.565338134765625	1.02935791015625E-06	5.81935296395386E-07	549214.375	7.09870300852344E-06
1	77	73.4963728144395	0.575408935546875	0.57537841796875	1.03485107421875E-06	5.95430947214481E-07	556001.1875	7.20264415576821E-06
1	78	73.5970808141852	0.585479736328125	0.585418701171875	1.0406494140625E-06	6.09215646818484E-07	562551.3125	7.30715373720159E-06
1	79	73.697788813931	0.595550537109375	0.59552001953125	1.04736328125E-06	6.23725838977407E-07	568589.75	7.41229359846329E-06
1	80	73.7984968136767	0.605621337890625	0.6055908203125	1.0552978515625E-06	6.39078677977523E-07	573857.75	7.51817105992814E-06
1	81	73.8992048134224	0.615692138671875	0.615631103515625	1.06475830078125E-06	6.55498297419399E-07	578188.625	7.62492436479079E-06
1	82	73.9999128131682	0.625762939453125	0.625732421875	1.07513427734375E-06	6.72746352847753E-07	582004	7.73267674958333E-06
1	83	74.1006208129139	0.635833740234375	0.635711669921875	1.08856201171875E-06	6.92011496994382E-07	583992.1875	7.84162693889812E-06
1	84	74.2013288126597	0.645904541015625	0.645904541015625	1.102294921875E-06	7.11977236278472E-07	585963.5	7.95194591773907E-06
1	85	74.3020368124054	0.655975341796875	0.655914306640625	1.116943359375E-06	7.32619071186491E-07	587240.5	8.0636928032618E-06
1	86	74.4027448121511	0.666046142578125	0.665985107421875	1.13189697265625E-06	7.53826498112176E-07	588379.625	8.17693126009544E-06
1	87	74.5034528118969	0.676116943359375	0.67608642578125	1.1456298828125E-06	7.74544787418563E-07	590143.875	8.2916139945155E-06
1	88	74.6041608116426	0.686187744140625	0.68603515625	1.1566162109375E-06	7.93479387084517E-07	593139.8125	8.40754091768758E-06
1	89	74.7048688113883	0.696258544921875	0.696197509765625	1.16485595703125E-06	8.10969766007474E-07	597668.375	8.52443645271705E-06
1	90	74.8055768111341	0.706329345703125	0.706207275390625	1.1700439453125E-06	8.26293501177133E-07	603573.3125	8.64200774230994E-06
1	91	74.9062848108798	0.716400146484375	0.71630859375	1.173095703125E-06	8.4029852587264E-07	610613.9375	8.75999467098154E-06
1	92	75.0069928106255	0.726470947265625	0.726409912109375	1.17340087890625E-06	8.52370021675597E-07	619063.75	8.87814985617297E-06
1	93	75.1077008103713	0.736541748046875	0.736480712890625	1.1737060546875E-06	8.64411845213908E-07	627483.125	8.99633596418425E-06
1	94	75.208408810117	0.746612548828125	0.74658203125	1.1737060546875E-06	8.76267790772545E-07	636089.5	9.11453753360547E-06
1	95	75.3091168098628	0.756683349609375	0.75653076171875	1.1737060546875E-06	8.8794467956177E-07	644565.8125	9.23273910302669E-06
1	96	75.4098248096085	0.766754150390625	0.76690673828125	1.17401123046875E-06	9.00357122191053E-07	653236.3125	9.35095613385784E-06
1	97	75.5105328093542	0.776824951171875	0.7769775390625	1.1749267578125E-06	9.12891721327469E-07	661298.6875	9.4692350103287E-06
1	98	75.6112408091	0.786895751953125	0.7867431640625	1.1767578125E-06	9.25806148188713E-07	668568.5	9.58765122049954E-06
1	99	75.7119488088457	0.796966552734375	0.797119140625	1.17889404296875E-06	9.39718972858827E-07	676158.5	9.70626842899946E-06
1	100	75.8126568085914	0.807037353515625	0.8074951171875	1.1810302734375E-06	9.53676135395654E-07	683720.9375	9.82509936875431E-06
1	101	75.9133648083372	0.817108154296875	0.8172607421875	1.18438720703125E-06	9.6795315585041E-07	690028.375	9.94420770439319E-06
1	102	76.0140728080829	0.827178955078125	0.8270263671875	1.18865966796875E-06	9.83052927949757E-07	695763.8125	1.00636998467962E-05
1	103	76.1147808078287	0.837249755859375	0.83770751953125	1.19232177734375E-06	9.98816858555074E-07	702585.125	1.0183592166868E-05
1	104	76.2154888075744	0.847320556640625	0.84716796875	1.19659423828125E-06	1.01371631444636E-06	707982.6875	1.03038837551139E-05
1	105	76.3161968073201	0.857391357421875	0.85784912109375	1.20147705078125E-06	1.03068600765255E-06	713995.4375	1.04246364571736E-05
1	106	76.4169048070659	0.867462158203125	0.86761474609375	1.2060546875E-06	1.04639082110225E-06	719382.625	1.05458648249623E-05
1	107	76.5176128068116	0.877532958984375	0.87738037109375	1.21063232421875E-06	1.0621849924064E-06	724729.0625	1.06675552160596E-05
1	108	76.6183208065573	0.887603759765625	0.88775634765625	1.2152099609375E-06	1.07881032818113E-06	730537.4375	1.07897058114759E-05
1	109	76.7190288063031	0.897674560546875	0.8978271484375	1.22039794921875E-06	1.09570646600332E-06	735683.9375	1.09123484435258E-05
1	110	76.8197368060488	0.907745361328125	0.908203125	1.22528076171875E-06	1.11280371584144E-06	741220.4375	1.10354976641247E-05
1	111	76.9204448057945	0.917816162109375	0.91796875	1.23016357421875E-06	1.12925170014933E-06	746216.8125	1.11591398308519E-05
1	112	77.0211528055403	0.927886962890625	0.92803955078125	1.2353515625E-06	1.14645513349387E-06	751235.1875	1.12832876766333E-05
1	113	77.121860805286	0.937957763671875	0.9381103515625	1.2408447265625E-06	1.16404919481283E-06	756025.625	1.14079739432782E-05
1	114	77.2225688050318	0.948028564453125	0.94818115234375	1.2469482421875E-06	1.18233276680257E-06	760401.4375	1.15332450150163E-05
1	115	77.3232768047775	0.958099365234375	0.95855712890625	1.25274658203125E-06	1.20082916055253E-06	765164.4375	1.16591145342682E-05
1	116	77.4239848045232	0.968170166015625	0.968017578125	1.2591552734375E-06	1.21888444937213E-06	768783.3125	1.17855988719384E-05
1	117	77.524692804269	0.978240966796875	0.97869873046875	1.26556396484375E-06	1.23860581879853E-06	773330.125	1.19127280413522E-05
1	118	77.6254008040147	0.988311767578125	0.98846435546875	1.27227783203125E-06	1.25760129776609E-06	776924.9375	1.20405184134142E-05
1	119	77.7261088037604	0.998382568359375	0.99884033203125	1.27899169921875E-06	1.27750854517217E-06	780959.1875	1.21689854495344E-05
1	120	77.8268168035062	1.00845336914063	1.00860595703125	1.28509521484375E-06	1.2961546644874E-06	784849.1875	1.22980973173981E-05
1	121	77.9275248032519	1.01852416992188	1.01837158203125	1.29150390625E-06	1.31523086110974E-06	788516.125	1.24278394650901E-05
1	122	78.0282328029976	1.02859497070313	1.02874755859375	1.29730224609375E-06	1.33459650442092E-06	792989.875	1.25581964312005E-05
1	123	78.1289408027434	1.03866577148438	1.03851318359375	1.3031005859375E-06	1.35328718897654E-06	796955.5	1.26891372929094E-05
1	124	78.2296488024891	1.04873657226563	1.04888916015625	1.30828857421875E-06	1.37224969876115E-06	801726.125	1.28206311273971E-05
1	125	78.3303568022349	1.05880737304688	1.058349609375	1.3134765625E-06	1.39011740429851E-06	805762.0625	1.29526470118435E-05
1	126	78.4310648019806	1.06887817382813	1.0687255859375	1.318359375E-06	1.40896429456916E-06	810648.1875	1.30851703943335E-05
1	127	78.5317728017263	1.07894897460938	1.07879638671875	1.3238525390625E-06	1.42816736570239E-06	814891.6875	1.32182167362771E-05
1	128	78.6324808014721	1.08901977539063	1.0888671875	1.3287353515625E-06	1.44681621350173E-06	819476.375	1.33517851281795E-05
1	129	78.7331888012178	1.09909057617188	1.0992431640625	1.3348388671875E-06	1.46731247241405E-06	823502.5	1.34859064928605E-05
1	130	78.8338968009635	1.10916137695313	1.10931396484375	1.3409423828125E-06	1.48752610584779E-06	827264.4375	1.362064267596E-05
1	131	78.9346048007093	1.11923217773438	1.119384765625	1.34735107421875E-06	1.50820426370046E-06	830804.125	1.37560091388877E-05
1	132	79.035312800455	1.12930297851563	1.12884521484375	1.35406494140625E-06	1.52852965129568E-06	833671.4375	1.38920368044637E-05
1	133	79.1360208002008	1.13937377929688	1.1395263671875	1.361083984375E-06	1.55099110088486E-06	837219.75	1.40287547765183E-05
1	134	79.2367287999465	1.14944458007813	1.1492919921875	1.36871337890625E-06	1.57305134962371E-06	839687.875	1.41662112582708E-05
1	135	79.3374367996922	1.15951538085938	1.15966796875	1.37725830078125E-06	1.59716228154139E-06	842012	1.43044817377813E-05
1	136	79.438144799438	1.16958618164063	1.16973876953125	1.385498046875E-06	1.62067067321914E-06	844273.1875	1.44435980473645E-05
1	137	79.5388527991837	1.17965698242188	1.1798095703125	1.3946533203125E-06	1.64542530001199E-06	845951.875	1.45835892908508E-05
1	138	79.6395607989294	1.18972778320313	1.1895751953125	1.40411376953125E-06	1.67029884323711E-06	847207.125	1.47245182233746E-05
1	139	79.7402687986752	1.19979858398438	1.199951171875	1.4141845703125E-06	1.69695238128043E-06	848511	1.48664312291658E-05
1	140	79.8409767984209	1.20986938476563	1.209716796875	1.42425537109375E-06	1.72294551248342E-06	849367.9375	1.50093583215494E-05
1	141	79.9416847981666	1.21994018554688	1.21978759765625	1.435546875E-06	1.75106231381505E-06	849702.375	1.51533604366705E-05
1	142	80.0423927979124	1.23001098632813	1.23016357421875	1.44744873046875E-06	1.78059860900248E-06	849884.0625	1.52985303429887E-05
1	143	80.1431007976581	1.24008178710938	1.23992919921875	1.45965576171875E-06	1.80986978648434E-06	849466.875	1.54449153342284E-05
1	144	80.2438087974039	1.25015258789063	1.25	1.47247314453125E-06	1.84059126695502E-06	848911.9375	1.55925590661354E-05
1	145	80.3445167971496	1.26022338867188	1.26007080078125	1.48529052734375E-06	1.87157115760783E-06	848366.5625	1.5741494280519E-05
1	146	80.4452247968953	1.27029418945313	1.27044677734375	1.4990234375E-06	1.90442938219348E-06	847516.3125	1.58917664521141E-05
1	147	80.5459327966411	1.28036499023438	1.280517578125	1.51336669921875E-06	1.93789264812949E-06	846138.375	1.60434519784758E-05
1	148	80.6466407963868	1.29043579101563	1.290283203125	1.52862548828125E-06	1.97235976884258E-06	844080.625	1.61966290761484E-05
1	149	80.7473487961325	1.30050659179688	1.3006591796875	1.54327392578125E-06	2.00727345145424E-06	842792.1875	1.63513122970471E-05
1	150	80.8480567958783	1.31057739257813	1.31072998046875	1.55853271484375E-06	2.04281536753115E-06	841002.5625	1.65074998221826E-05
1	151	80.948764795624	1.32064819335938	1.32080078125	1.57470703125E-06	2.07987409339694E-06	838759.75	1.66652716870885E-05
1	152	81.0494727953698	1.33071899414063	1.33056640625	1.59088134765625E-06	2.11677320294257E-06	836370.625	1.68246715475107E-05
1	153	81.1501807951155	1.34078979492188	1.3409423828125	1.60675048828125E-06	2.15455975194345E-06	834567.9375	1.69856848515337E-05
1	154	81.2508887948612	1.35086059570313	1.35101318359375	1.62384033203125E-06	2.19382968680293E-06	831986.5	1.71483570738928E-05
1	155	81.351596794607	1.36093139648438	1.36077880859375	1.641845703125E-06	2.23418874156778E-06	828810.4375	1.73127973539522E-05
1	156	81.4523047943527	1.37100219726563	1.370849609375	1.661376953125E-06	2.2774979697715E-06	825128.625	1.74791293829912E-05
1	157	81.5530127940984	1.38107299804688	1.3812255859375	1.68304443359375E-06	2.3246639102581E-06	820670.9375	1.76475332409609E-05
1	158	81.6537207938442	1.39114379882813	1.39129638671875	1.707763671875E-06	2.37600534092053E-06	814689.0625	1.78182745003141E-05
1	159	81.7544287935899	1.40121459960938	1.40045166015625	1.73736572265625E-06	2.43309659708757E-06	806077.6875	1.79917497007409E-05
1	160	81.8551367933356	1.41128540039063	1.41143798828125	1.77154541015625E-06	2.50042648985982E-06	796727	1.81684390554437E-05
1	161	81.9558447930814	1.42135620117188	1.4215087890625	1.81365966796875E-06	2.57813303505827E-06	783779.25	1.83489682967775E-05
1	162	82.0565527928271	1.43142700195313	1.4312744140625	1.86309814453125E-06	2.66660458692058E-06	768222.8125	1.85341068572598E-05
1	163	82.1572607925729	1.44149780273438	1.44134521484375	1.922607421875E-06	2.77114099844766E-06	749682.5	1.87247333087726E-05
1	164	82.2579687923186	1.45156860351563	1.451416015625	1.9940185546875E-06	2.89415038423613E-06	727884.9375	1.89219499588944E-05
1	165	82.3586767920643	1.46163940429688	1.4617919921875	2.07672119140625E-06	3.0357343803189E-06	703894.25	1.91269282368012E-05
1	166	82.4593847918101	1.47171020507813	1.4715576171875	2.1710205078125E-06	3.19478181154409E-06	677818.375	1.93408195627853E-05
1	167	82.5600927915558	1.48178100585938	1.48223876953125	2.27386474609375E-06	3.37041046805098E-06	651858.8125	1.95646371139446E-05
1	168	82.6608007913015	1.49185180664063	1.49139404296875	2.38189697265625E-06	3.55234669768834E-06	626137.125	1.97990739252418E-05
1	169	82.7615087910473	1.50192260742188	1.5020751953125	2.4884033203125E-06	3.73776879314391E-06	603630.125	2.00443118956173E-05
1	170	82.862216790793	1.49185180664063	1.49200439453125	2.15057373046875E-06	3.20866524816665E-06	693770.4375	2.02779028768418E-05
1	171	82.9629247905388	1.48178100585938	1.48162841796875	1.90582275390625E-06	2.82372116089391E-06	777421.9375	2.04821590159554E-05
1	172	83.0636327902845	1.47171020507813	1.47186279296875	1.7132568359375E-06	2.52167887992982E-06	859102.25	2.06643944693496E-05
1	173	83.1643407900302	1.46163940429688	1.46209716796875	1.5557861328125E-06	2.27471036851057E-06	939780.3125	2.08290039154235E-05
1	174	83.265048789776	1.45156860351563	1.45172119140625	1.424560546875E-06	2.06806475944177E-06	1019066	2.09790759981843E-05
1	175	83.3657567895217	1.44149780273438	1.441650390625	1.31378173828125E-06	1.89401384886878E-06	1097328.75	2.11169626709307E-05
1	176	83.4664647892674	1.43142700195313	1.43157958984375	1.220703125E-06	1.74753358805901E-06	1172750	2.12445829674834E-05
1	177	83.5671727890132	1.42135620117188	1.4215087890625	1.1419677734375E-06	1.6233173028013E-06	1244788.875	2.13635539694224E-05
1	178	83.6678807887589	1.41128540039063	1.41143798828125	1.07391357421875E-06	1.51576227835903E-06	1314293.875	2.14751325984253E-05
1	179	83.7685887885046	1.40121459960938	1.4013671875	1.01654052734375E-06	1.4245465536078E-06	1378565	2.15803956962191E-05
1	180	83.8692967882504	1.39114379882813	1.3909912109375	9.6710205078125E-07	1.34523031647404E-06	1438308.75	2.16802800423466E-05
1	181	83.9700047879961	1.38107299804688	1.38092041015625	9.25292968749999E-07	1.27775592773105E-06	1492414.25	2.17755696212407E-05
1	182	84.0707127877419	1.37100219726563	1.370849609375	8.892822265625E-07	1.2190721463412E-06	1541523.75	2.18669392779702E-05
1	183	84.1714207874876	1.36093139648438	1.3604736328125	8.58154296874999E-07	1.16749629341939E-06	1585348.5	2.19549310713774E-05
1	184	84.2721287872333	1.35086059570313	1.35101318359375	8.30993652343751E-07	1.12268332941312E-06	1625780.375	2.20399851968978E-05
1	185	84.3728367869791	1.34078979492188	1.3409423828125	8.08105468750001E-07	1.08362280570873E-06	1659365.625	2.21225218410837E-05
1	186	84.4735447867248	1.33071899414063	1.33087158203125	7.88269042968751E-07	1.04908485809574E-06	1688347	2.22029048018157E-05
1	187	84.5742527864705	1.32064819335938	1.32080078125	7.6934814453125E-07	1.01615557923651E-06	1716779.125	2.22813378059072E-05
1	188	84.6749607862163	1.31057739257813	1.31072998046875	7.52868652343749E-07	9.86807435765513E-07	1740981	2.23579863813939E-05
1	189	84.775668785962	1.30050659179688	1.30035400390625	7.37915039062501E-07	9.59550675361243E-07	1762200.25	2.24330542550888E-05
1	190	84.8763767857077	1.29043579101563	1.29058837890625	7.244873046875E-07	9.35014838887582E-07	1781381.75	2.25066924031125E-05
1	191	84.9770847854535	1.28036499023438	1.2799072265625	7.122802734375E-07	9.11652648483141E-07	1796915.125	2.25790390686598E-05
1	192	85.0777927851992	1.27029418945313	1.2701416015625	7.0068359375E-07	8.89967395778513E-07	1812717.75	2.26501870201901E-05
1	193	85.178500784945	1.26022338867188	1.26007080078125	6.89697265625E-07	8.69067321218608E-07	1826991.25	2.27201981033431E-05
1	194	85.2792087846907	1.25015258789063	1.25	6.793212890625E-07	8.49151547299698E-07	1840072	2.27891341637587E-05
1	195	85.3799167844364	1.24008178710938	1.2396240234375	6.695556640625E-07	8.29997304663266E-07	1851412.875	2.28570552280871E-05
1	196	85.4806247841822	1.23001098632813	1.23016357421875	6.59790039062499E-07	8.11649670140469E-07	1864477.375	2.29239922191482E-05
1	197	85.5813327839279	1.21994018554688	1.219482421875	6.50634765624999E-07	7.93437664015073E-07	1874296.375	2.29899778787512E-05
1	198	85.6820407836736	1.20986938476563	1.209716796875	6.4208984375E-07	7.76746844621812E-07	1884030.375	2.30550722335465E-05
1	199	85.7827487834194	1.19979858398438	1.20025634765625	6.33544921875E-07	7.6041629881729E-07	1894508.75	2.31193043873645E-05
1	200	85.8834567831651	1.18972778320313	1.18988037109375	6.24694824218749E-07	7.43312057238654E-07	1904738.75	2.31826634262688E-05
1	201	85.9841647829109	1.17965698242188	1.17950439453125	6.16455078125E-07	7.27111455489649E-07	1913366.375	2.32451602641959E-05
1	202	86.0848727826566	1.16958618164063	1.16943359375	6.08215332031251E-07	7.11267432507157E-07	1922729.625	2.33068258239655E-05
1	203	86.1855807824023	1.15951538085938	1.15936279296875	6.00280761718749E-07	6.95943185746728E-07	1931367.5	2.33676782954717E-05
1	204	86.2862887821481	1.14944458007813	1.1492919921875	5.9234619140625E-07	6.80778725836717E-07	1940237.125	2.34277322306298E-05
1	205	86.3869967818938	1.13937377929688	1.13983154296875	5.841064453125E-07	6.65782920350466E-07	1951410.75	2.3486971258535E-05
1	206	86.4877047816395	1.12930297851563	1.129150390625	5.7586669921875E-07	6.50240110644518E-07	1960784.375	2.35453808272723E-05
1	207	86.5884127813853	1.11923217773438	1.11907958984375	5.6732177734375E-07	6.34878233540803E-07	1972566	2.36029445659369E-05
1	208	86.689120781131	1.10916137695313	1.10931396484375	5.59082031249999E-07	6.20197511125298E-07	1984170.375	2.36596642935183E-05
1	209	86.7898287808767	1.09909057617188	1.09954833984375	5.51452636718749E-07	6.06348805831658E-07	1993912.625	2.37155836657621E-05
1	210	86.8905367806225	1.08901977539063	1.0888671875	5.4229736328125E-07	5.90489776186587E-07	2007878.5	2.37706590269227E-05
1	211	86.9912447803682	1.07894897460938	1.07940673828125	5.340576171875E-07	5.76465367885248E-07	2021142.875	2.38248576351907E-05
1	212	87.091952780114	1.06887817382813	1.0687255859375	5.2520751953125E-07	5.61302670121222E-07	2034863.5	2.38781958614709E-05
1	213	87.1926607798597	1.05880737304688	1.05865478515625	5.157470703125E-07	5.45998091183719E-07	2052662.875	2.39306118601235E-05
1	214	87.2933687796054	1.04873657226563	1.048583984375	5.0689697265625E-07	5.31524051439192E-07	2068633.375	2.39821056311484E-05
1	215	87.3940767793512	1.03866577148438	1.038818359375	4.96826171875001E-07	5.16112095283461E-07	2090909.25	2.40326480707154E-05
1	216	87.4947847790969	1.02859497070313	1.0284423828125	4.87670898437501E-07	5.0154142172687E-07	2108886.25	2.40822209889302E-05
1	217	87.5954927788426	1.01852416992188	1.0186767578125	4.7760009765625E-07	4.86520150388969E-07	2132907.25	2.41308262047824E-05
1	218	87.6962007785884	1.00845336914063	1.00799560546875	4.67529296874999E-07	4.71267469492886E-07	2156005.25	2.41784164245473E-05
1	219	87.7969087783341	0.998382568359375	0.99822998046875	4.5745849609375E-07	4.56648791669068E-07	2182121.5	2.42249934672145E-05
1	220	87.8976167780799	0.988311767578125	0.98876953125	4.4891357421875E-07	4.43872067990014E-07	2202583.25	2.42706337303389E-05
1	221	87.9983247778256	0.978240966796875	0.9783935546875	4.39453125E-07	4.29958106451522E-07	2226389	2.43153663177509E-05
1	222	88.0990327775713	0.968170166015625	0.968017578125	4.31213378906251E-07	4.17422143073054E-07	2244869	2.43592076003551E-05
1	223	88.1997407773171	0.958099365234375	0.958251953125	4.23278808593749E-07	4.05607750053605E-07	2263879	2.4402235794696E-05
1	224	88.3004487770628	0.948028564453125	0.948486328125	4.15649414062499E-07	3.94237758882809E-07	2281938.5	2.44444781856146E-05
1	225	88.4011567768085	0.937957763671875	0.93780517578125	4.08020019531249E-07	3.82643293050933E-07	2298429.25	2.44859529630048E-05
1	226	88.5018647765543	0.927886962890625	0.92803955078125	4.0130615234375E-07	3.72427990669166E-07	2312547.5	2.45267056016019E-05
1	227	88.6025727763	0.917816162109375	0.91827392578125	3.94592285156251E-07	3.62343797633002E-07	2327146.25	2.45667833951302E-05
1	228	88.7032807760457	0.907745361328125	0.9075927734375	3.8787841796875E-07	3.52035641526527E-07	2339890	2.4606182705611E-05
1	229	88.8039887757915	0.897674560546875	0.89752197265625	3.814697265625E-07	3.42377433071306E-07	2352800.25	2.46449235419277E-05
1	230	88.9046967755372	0.887603759765625	0.887451171875	3.74755859375001E-07	3.32577513972865E-07	2368078.25	2.46830022661015E-05
1	231	89.005404775283	0.877532958984375	0.877685546875	3.67126464843751E-07	3.22221580972837E-07	2390690	2.47203588514822E-05
1	232	89.1061127750287	0.867462158203125	0.8673095703125	3.6041259765625E-07	3.12589293116616E-07	2406435.25	2.47569932980696E-05
1	233	89.2068207747744	0.857391357421875	0.85784912109375	3.5369873046875E-07	3.03420137015564E-07	2425366.75	2.47929510805989E-05
1	234	89.3075287745202	0.847320556640625	0.8477783203125	3.46984863281249E-07	2.94166227376991E-07	2443272	2.48282340180594E-05
1	235	89.4082367742659	0.837249755859375	0.83770751953125	3.4027099609375E-07	2.85047576653596E-07	2461883.5	2.48628402914619E-05
1	236	89.5089447740116	0.827178955078125	0.8270263671875	3.33251953124999E-07	2.75608130095861E-07	2481685.25	2.4896755348891E-05
1	237	89.6096527737574	0.817108154296875	0.81756591796875	3.2684326171875E-07	2.67215909843799E-07	2501400.5	2.4929993742262E-05
1	238	89.7103607735031	0.807037353515625	0.80718994140625	3.2073974609375E-07	2.5889787025335E-07	2516651	2.496260094631E-05
1	239	89.8110687732488	0.796966552734375	0.79742431640625	3.14941406249999E-07	2.51141926810305E-07	2531977	2.49946097028442E-05
1	240	89.9117767729946	0.786895751953125	0.78704833984375	3.094482421875E-07	2.4355071559512E-07	2543392.5	2.50260509346845E-05
1	241	90.0124847727403	0.776824951171875	0.77728271484375	3.04565429687501E-07	2.36733441738579E-07	2552104.25	2.50569682975765E-05
1	242	90.1131927724861	0.766754150390625	0.76690673828125	2.978515625E-07	2.28424369197455E-07	2574795.25	2.50873035838595E-05
1	243	90.2139007722318	0.756683349609375	0.7568359375	2.9266357421875E-07	2.2149831124807E-07	2586027.25	2.51170386036392E-05
1	244	90.3146087719775	0.746612548828125	0.74652099609375	2.850341796875E-07	2.12783987763032E-07	2619058	2.51461278821807E-05
1	245	90.4153167717233	0.736541748046875	0.736480712890625	2.777099609375E-07	2.04528021185979E-07	2651978.25	2.51744640991092E-05
1	246	90.516024771469	0.726470947265625	0.72637939453125	2.685546875E-07	1.95072587416689E-07	2704772.75	2.52019708568696E-05
1	247	90.6167327712147	0.716400146484375	0.71630859375	2.57568359375E-07	1.84498432531655E-07	2781042.75	2.52284626185428E-05
1	248	90.7174407709605	0.706329345703125	0.706329345703125	2.45056152343751E-07	1.73090356270222E-07	2882316.25	2.52537720371038E-05
1	249	90.8181487707062	0.696258544921875	0.69622802734375	2.31018066406249E-07	1.60841253205035E-07	3013738.5	2.52777444984531E-05
1	250	90.918856770452	0.686187744140625	0.686187744140625	2.15759277343749E-07	1.48051370274516E-07	3180339.5	2.53002417593962E-05
1	251	91.0195647701977	0.676116943359375	0.67608642578125	1.9989013671875E-07	1.35143011448235E-07	3382290	2.53211710514734E-05
1	252	91.1202727699434	0.666046142578125	0.666015625	1.84326171875E-07	1.2276410643608E-07	3613245	2.53405178227695E-05
1	253	91.2209807696892	0.655975341796875	0.655853271484375	1.7120361328125E-07	1.12284446629474E-07	3830837.75	2.53584203164792E-05
1	254	91.3216887694349	0.645904541015625	0.6458740234375	1.6143798828125E-07	1.04268600864543E-07	4000756.25	2.5375169570907E-05
1	255	91.4223967691806	0.635833740234375	0.63580322265625	1.54724121093749E-07	9.83740946480793E-08	4109270.25	2.53910893661669E-05
1	256	91.5231047689264	0.625762939453125	0.62579345703125	1.50451660156251E-07	9.41516589136882E-08	4159432.25	2.5406456188648E-05
1	257	91.6238127686721	0.615692138671875	0.615692138671875	1.48620605468749E-07	9.15045319516139E-08	4142710.5	2.542151560192E-05
1	258	91.7245207684178	0.605621337890625	0.605560302734375	1.47094726562499E-07	8.90747244852719E-08	4116805	2.54364058491774E-05
1	259	91.8252287681636	0.595550537109375	0.595458984375	1.4678955078125E-07	8.74071517387165E-08	4056549	2.54512051469646E-05
1	260	91.9259367679093	0.585479736328125	0.585418701171875	1.4617919921875E-07	8.55760333706712E-08	4004802	2.54659571510274E-05
1	261	92.0266447676551	0.575408935546875	0.575347900390625	1.45874023437501E-07	8.3928313188153E-08	3944142.25	2.54806636803551E-05
1	262	92.1273527674008	0.565338134765625	0.5653076171875	1.4617919921875E-07	8.26362125394553E-08	3867223.75	2.54953683906933E-05
1	263	92.2280607671465	0.555267333984375	0.55511474609375	1.4617919921875E-07	8.11462257388484E-08	3797495	2.55100912909256E-05
1	264	92.3287687668923	0.545196533203125	0.545135498046875	1.45263671875E-07	7.91883820738803E-08	3752731.25	2.5524765078444E-05
1	265	92.429476766638	0.535125732421875	0.53515625	1.446533203125E-07	7.74121247104631E-08	3699578.25	2.55393642873969E-05
1	266	92.5301847663837	0.525054931640625	0.525054931640625	1.4373779296875E-07	7.54702398353402E-08	3652866.25	2.55538852798054E-05
1	267	92.6308927661295	0.514984130859375	0.5150146484375	1.4312744140625E-07	7.37127265892923E-08	3598294.25	2.55683316936484E-05
1	268	92.7316007658752	0.504913330078125	0.50494384765625	1.416015625E-07	7.15008354745805E-08	3565948.25	2.55826689681271E-05
1	269	92.832308765621	0.494842529296875	0.494842529296875	1.40991210937499E-07	6.97684470196691E-08	3509740.5	2.55968971032416E-05
1	270	92.9330167653667	0.484771728515625	0.484710693359375	1.39465332031249E-07	6.76003324429075E-08	3475492.5	2.56110197369708E-05
1	271	93.0337247651124	0.474700927734375	0.474700927734375	1.38244628906251E-07	6.56248531072379E-08	3433774.75	2.56250041275052E-05
1	272	93.1344327648582	0.464630126953125	0.4647216796875	1.36718750000001E-07	6.35361701029069E-08	3399107	2.56388484558556E-05
1	273	93.2351407646039	0.454559326171875	0.454559326171875	1.361083984375E-07	6.18693434262241E-08	3339686	2.56525872828206E-05
1	274	93.3358487643496	0.444488525390625	0.444488525390625	1.33666992187501E-07	5.94134412779113E-08	3325342.5	2.56661714956863E-05
1	275	93.4365567640954	0.434417724609375	0.434478759765625	1.31835937499999E-07	5.72799123688128E-08	3295602	2.56795410678023E-05
1	276	93.5372647638411	0.424346923828125	0.424407958984375	1.30310058593749E-07	5.53046248796818E-08	3256908.75	2.56927414739039E-05
1	277	93.6379727635868	0.414276123046875	0.41424560546875	1.2847900390625E-07	5.32218606963397E-08	3224228	2.57057708950015E-05
1	278	93.7386807633326	0.404205322265625	0.404205322265625	1.25732421874999E-07	5.08217112837883E-08	3214806	2.57185729424236E-05
1	279	93.8393887630783	0.394134521484375	0.3941650390625	1.2359619140625E-07	4.87173004160013E-08	3189135.75	2.57311276072869E-05
1	280	93.9400967628241	0.384063720703125	0.38409423828125	1.21154785156249E-07	4.65348541922594E-08	3170277	2.57434512604959E-05
1	281	94.0408047625698	0.373992919921875	0.3740234375	1.1871337890625E-07	4.44015846312595E-08	3150642.75	2.57555293501355E-05
1	282	94.1415127623155	0.363922119140625	0.363922119140625	1.16882324218751E-07	4.25360617839488E-08	3113577.25	2.57673927990254E-05
1	283	94.2422207620613	0.353851318359375	0.353851318359375	1.1474609375E-07	4.06030551403092E-08	3083776.5	2.57790561590809E-05
1	284	94.342928761807	0.343780517578125	0.343780517578125	1.13525390624999E-07	3.90278174222658E-08	3028225.75	2.57905503531219E-05
1	285	94.4436367615527	0.333709716796875	0.333709716796875	1.1138916015625E-07	3.71716453173576E-08	2995890.5	2.58018753811484E-05
1	286	94.5443447612985	0.323638916015625	0.323638916015625	1.0955810546875E-07	3.5457265568084E-08	2954039	2.58130021393299E-05
1	287	94.6450527610442	0.313568115234375	0.31353759765625	1.07727050781251E-07	3.37764802793572E-08	2910481.75	2.58239433605922E-05
1	288	94.7457607607899	0.303497314453125	0.303466796875	1.055908203125E-07	3.20433066747228E-08	2873988.5	2.58346844930202E-05
1	289	94.8464687605357	0.293426513671875	0.293487548828125	1.0406494140625E-07	3.05417628965188E-08	2820234.75	2.5845240088529E-05
1	290	94.9471767602814	0.283355712890625	0.283355712890625	1.01318359374999E-07	2.870913462516E-08	2796686.75	2.58555828622775E-05
1	291	95.0478847600272	0.273284912109375	0.273345947265625	9.88769531250003E-08	2.70276139247017E-08	2764506.25	2.5865663701552E-05
1	292	95.1485927597729	0.263214111328125	0.26324462890625	9.613037109375E-08	2.53058036747689E-08	2738412.75	2.58754826063523E-05
1	293	95.2493007595186	0.253143310546875	0.25311279296875	9.33837890624997E-08	2.3636632207058E-08	2710457.5	2.58850250247633E-05
1	294	95.3500087592644	0.243072509765625	0.243133544921875	9.002685546875E-08	2.18885478631137E-08	2700678	2.58942618529545E-05
1	295	95.4507167590101	0.233001708984375	0.232940673828125	8.66699218750003E-08	2.01889491791007E-08	2687676	2.59031585301273E-05
1	296	95.5514247587558	0.222930908203125	0.222930908203125	8.33129882812506E-08	1.85730382185056E-08	2675824.25	2.59117186942603E-05
1	297	95.6521327585016	0.212860107421875	0.212860107421875	7.90405273437503E-08	1.68245755105545E-08	2693050.25	2.59198932326399E-05
1	298	95.7528407582473	0.202789306640625	0.202850341796875	7.476806640625E-08	1.51667283176948E-08	2713061.25	2.59276384895202E-05
1	299	95.8535487579931	0.192718505859375	0.1927490234375	7.01904296875E-08	1.35291369218749E-08	2746087	2.59349362750072E-05
1	300	95.9542567577388	0.182647705078125	0.182708740234375	6.50024414062506E-08	1.18765139944799E-08	2810798.25	2.59417447523447E-05
1	301	96.0549647574845	0.172576904296875	0.172607421875	5.82885742187497E-08	1.00610408892976E-08	2961256.5	2.5947952963179E-05
1	302	96.1556727572303	0.162506103515625	0.162506103515625	5.06591796874997E-08	8.23242540803903E-09	3207831.5	2.59534390352201E-05
1	303	96.256380756976	0.152435302734375	0.1524658203125	4.15039062499997E-08	6.32792707122576E-09	3673529.5	2.59580792771885E-05
1	304	96.3570887567217	0.142364501953125	0.14239501953125	3.02124023437503E-08	4.30209556867567E-09	4713131.5	2.59616899711546E-05
1	305	96.4577967564675	0.132293701171875	0.13238525390625	1.64794921875003E-08	2.18164175613822E-09	8033333.5	2.59640419244533E-05
1	306	96.5585047562132	0.122222900390625	0.12225341796875	-2.44140625000056E-09	-2.9847024851648E-10	-50075000	2.59647495113313E-05
1	307	96.6592127559589	0.112152099609375	0.112152099609375	-2.71606445312503E-08	-3.04612313151154E-09	-4129213.75	2.59632579400204E-05
1	308	96.7599207557047	0.102081298828125	0.10211181640625	-5.88989257812506E-08	-6.01427618818207E-09	-1733678.875	2.59589251072612E-05
1	309	96.8606287554504	0.092010498046875	0.092041015625	-1.0223388671875E-07	-9.40971034424365E-09	-900298.5625	2.59508105955319E-05
1	310	96.9613367551962	0.081939697265625	0.082061767578125	-1.6143798828125E-07	-1.32478863434926E-08	-508317.59375	2.59375337918755E-05
1	311	97.0620447549419	0.071868896484375	0.071868896484375	-2.42004394531251E-07	-1.73925869262348E-08	-296973.53125	2.59172193182167E-05
1	312	97.1627527546876	0.061798095703125	0.061859130859375	-3.48510742187499E-07	-2.15585700402698E-08	-177495.625	2.58874842984369E-05
1	313	97.2634607544334	0.051727294921875	0.05181884765625	-4.8675537109375E-07	-2.52231018293969E-08	-106457.6796875	2.58454256254481E-05
1	314	97.3641687541791	0.041656494140625	0.041766357421875	-6.591796875E-07	-2.75315326092596E-08	-63361.11328125	2.57877236435888E-05
1	315	97.4648767539248	0.031585693359375	0.031695556640625	-8.62731933593749E-07	-2.7344766451165E-08	-36738.59375	2.5711087801028E-05
1	316	97.5655847536706	0.021514892578125	0.021636962890625	-1.08428955078125E-06	-2.34607338001069E-08	-19954.966796875	2.56130479101557E-05
1	317	97.6662927534163	0.011444091796875	0.011505126953125	-1.30889892578125E-06	-1.50590473424472E-08	-8789.9287109375	2.54925416811602E-05
1	318	97.7670007531621	0.001373291015625	0.0015106201171875	-1.51153564453125E-06	-2.28335617080688E-09	-999.394287109375	2.5350522264489E-05
1	319	97.8677087529078	-0.008697509765625	-0.00856628417968749	-1.67205810546875E-06	1.43233247484886E-08	5123.1982421875	2.51902147283545E-05
1	320	97.9684167526535	-0.018768310546875	-0.018621826171875	-1.77825927734375E-06	3.31144356380264E-08	10471.94140625	2.50164775934536E-05
1	321	98.0691247523993	-0.028839111328125	-0.0287139892578125	-1.82769775390625E-06	5.24804946167023E-08	15710.4697265625	2.48349024332128E-05
1	322	98.169832752145	-0.038909912109375	-0.0387603759765625	-1.82861328125E-06	7.08777321278831E-08	21196.595703125	2.4650793420733E-05
1	323	98.2705407518907	-0.048980712890625	-0.0488494873046875	-1.7950439453125E-06	8.76869705734862E-08	27213.533203125	2.44683269556845E-05
1	324	98.3712487516365	-0.059051513671875	-0.058990478515625	-1.74041748046875E-06	1.02668060719679E-07	33894.44140625	2.42903024627594E-05
1	325	98.4719567513822	-0.069122314453125	-0.069061279296875	-1.67388916015625E-06	1.15600919059489E-07	41257.9765625	2.41183788602939E-05
1	326	98.5726647511279	-0.079193115234375	-0.079132080078125	-1.60614013671875E-06	1.27097209201565E-07	49268.4765625	2.39532164414413E-05
1	327	98.6733727508737	-0.089263916015625	-0.089202880859375	-1.54083251953125E-06	1.37446704684407E-07	57892.65234375	2.3794753360562E-05
1	328	98.7740807506194	-0.099334716796875	-0.0992431640625	-1.480712890625E-06	1.46950625889986E-07	67023.90625	2.36426076298812E-05
1	329	98.8747887503652	-0.109405517578125	-0.109375	-1.42669677734375E-06	1.56044947630107E-07	76663.1015625	2.34962080867263E-05
1	330	98.9754967501109	-0.119476318359375	-0.119354248046875	-1.3787841796875E-06	1.64563743965118E-07	86564.8515625	2.33549399126787E-05
1	331	99.0762047498566	-0.129547119140625	-0.129486083984375	-1.336669921875E-06	1.73080152876537E-07	96872.1484375	2.32182064792141E-05
1	332	99.1769127496024	-0.139617919921875	-0.13946533203125	-1.30035400390625E-06	1.81354295136771E-07	107251.828125	2.30854220717447E-05
1	333	99.2776207493481	-0.149688720703125	-0.149566650390625	-1.26922607421875E-06	1.89833883723622E-07	117840.8359375	2.29560318985023E-05
1	334	99.3783287490938	-0.159759521484375	-0.15966796875	-1.24176025390625E-06	1.98269319184874E-07	128581.96875	2.28295939450618E-05
1	335	99.4790367488396	-0.169830322265625	-0.16973876953125	-1.21856689453125E-06	2.06838024041645E-07	139293.78125	2.27057080337545E-05
1	336	99.5797447485853	-0.179901123046875	-0.1796875	-1.19903564453125E-06	2.15451720464443E-07	149860.015625	2.25839721679222E-05
1	337	99.680452748331	-0.189971923828125	-0.1898193359375	-1.1822509765625E-06	2.2441408020768E-07	160557.578125	2.24640643864404E-05
1	338	99.7811607480768	-0.200042724609375	-0.199859619140625	-1.16790771484375E-06	2.33417594586172E-07	171126.203125	2.23457245738246E-05
1	339	99.8818687478225	-0.189971923828125	-0.1898193359375	-1.01959228515625E-06	1.93538312487362E-07	186171.8125	2.22355738515034E-05
2	340	99.9825767475683	-0.179901123046875	-0.179718017578125	-9.197998046875E-07	1.65304598453986E-07	195388.1875	2.21379177673953E-05
2	341	100.083284747314	-0.169830322265625	-0.169677734375	-8.404541015625E-07	1.42606353392694E-07	201888.15625	2.20492820517393E-05
2	342	100.18399274706	-0.159759521484375	-0.15960693359375	-7.7362060546875E-07	1.23475203395174E-07	206311.640625	2.19680077861995E-05
2	343	100.284700746805	-0.149688720703125	-0.149566650390625	-7.1441650390625E-07	1.0685288032164E-07	209354.984375	2.18930781556992E-05
2	344	100.385408746551	-0.139617919921875	-0.139556884765625	-6.6131591796875E-07	9.22911809198013E-08	211029.078125	2.18238055822439E-05
2	345	100.486116746297	-0.129547119140625	-0.12945556640625	-6.11572265625E-07	7.91714356296325E-08	211676.640625	2.17597098526312E-05
2	346	100.586824746043	-0.119476318359375	-0.119384765625	-5.63964843750001E-07	6.73288056418642E-08	211688.328125	2.17005181184504E-05
2	347	100.687532745788	-0.109405517578125	-0.109283447265625	-5.16662597656251E-07	5.64626674304236E-08	211518.03125	2.16461030504433E-05
2	348	100.788240745534	-0.099334716796875	-0.099212646484375	-4.6844482421875E-07	4.64756517715159E-08	211791.53125	2.15964992094086E-05
2	349	100.88894874528	-0.089263916015625	-0.089202880859375	-4.16259765625E-07	3.71315707070607E-08	214296.1875	2.15519503399264E-05
2	350	100.989656745026	-0.079193115234375	-0.0792236328125	-3.570556640625E-07	2.82872463230888E-08	221880.34375	2.15130112337647E-05
2	351	101.090364744771	-0.069122314453125	-0.06903076171875	-2.8717041015625E-07	1.98235916570866E-08	240382.578125	2.14805713767419E-05
2	352	101.191072744517	-0.059051513671875	-0.058990478515625	-2.0111083984375E-07	1.18636247492532E-08	293323.21875	2.14559859159635E-05
2	353	101.291780744263	-0.048980712890625	-0.048858642578125	-9.39941406250006E-08	4.5924259950425E-09	519805.21875	2.14411247725366E-05
2	354	101.392488744009	-0.038909912109375	-0.0387603759765625	4.15039062499997E-08	-1.60870694543291E-09	-933897.0625	2.14384817809332E-05
2	355	101.493196743754	-0.028839111328125	-0.0286956787109375	2.0751953125E-07	-5.95491345123378E-09	-138279.421875	2.14510218938813E-05
2	356	101.5939047435	-0.018768310546875	-0.018634033203125	4.0618896484375E-07	-7.56893836495465E-09	-45875.28125	2.14819247048581E-05
2	357	101.694612743246	-0.008697509765625	-0.008575439453125	6.29577636718751E-07	-5.3989048787173E-09	-13620.9404296875	2.15340787690366E-05
2	358	101.795320742992	0.001373291015625	0.00148925781250001	8.6639404296875E-07	1.29028410178478E-09	1718.91516113281	2.16094067582162E-05
2	359	101.896028742737	0.011444091796875	0.0115264892578125	1.094970703125E-06	1.2621168110627E-08	10526.7568359375	2.17081706068711E-05
2	360	101.996736742483	0.021514892578125	0.021636962890625	1.2957763671875E-06	2.80366645455388E-08	16698.0703125	2.18285531445872E-05
2	361	102.097444742229	0.031585693359375	0.031646728515625	1.44683837890625E-06	4.57877007420393E-08	21873.0234375	2.19666544580832E-05
2	362	102.198152741974	0.041656494140625	0.0417205810546875	1.5423583984375E-06	6.43480859707779E-08	27049.861328125	2.21171740122372E-05
2	363	102.29886074172	0.051727294921875	0.05181884765625	1.58355712890625E-06	8.20581007587862E-08	32723.0703125	2.22745766222943E-05
2	364	102.399568741466	0.061798095703125	0.061859130859375	1.57989501953125E-06	9.7730925574524E-08	39153.953125	2.24338673433522E-05
2	365	102.500276741212	0.071868896484375	0.071868896484375	1.546630859375E-06	1.11154655257906E-07	46468.03515625	2.25913008762291E-05
2	366	102.600984740957	0.081939697265625	0.08203125	1.4959716796875E-06	1.2271642901851E-07	54834.76171875	2.27445088967215E-05
2	367	102.701692740703	0.092010498046875	0.09197998046875	1.43707275390625E-06	1.32181924072938E-07	64005.1015625	2.28921981033636E-05
2	368	102.802400740449	0.102081298828125	0.10211181640625	1.3775634765625E-06	1.40665505909965E-07	74124.9453125	2.30339264817303E-05
2	369	102.903108740195	0.112152099609375	0.112152099609375	1.3201904296875E-06	1.48062127891535E-07	84951.453125	2.31697704293765E-05
2	370	103.00381673994	0.122222900390625	0.12225341796875	1.26800537109375E-06	1.55017986003259E-07	96413.9609375	2.33000955631724E-05
2	371	103.104524739686	0.132293701171875	0.13238525390625	1.22039794921875E-06	1.61562695666362E-07	108477.1171875	2.34253966482356E-05
2	372	103.205232739432	0.142364501953125	0.142425537109375	1.1785888671875E-06	1.67861145428105E-07	120844.125	2.35461957345251E-05
2	373	103.305940739178	0.152435302734375	0.15240478515625	1.14105224609375E-06	1.73901810285315E-07	133565.140625	2.3662998501095E-05
2	374	103.406648738923	0.162506103515625	0.162506103515625	1.1083984375E-06	1.80121517701082E-07	146613.4375	2.37762669712538E-05
2	375	103.507356738669	0.172576904296875	0.17254638671875	1.07940673828125E-06	1.86247731903677E-07	159852.984375	2.38864322454901E-05
2	376	103.608064738415	0.182647705078125	0.182647705078125	1.0540771484375E-06	1.9252475169651E-07	173277.375	2.39938617596636E-05
2	377	103.708772738161	0.192718505859375	0.192718505859375	1.031494140625E-06	1.98788001171124E-07	186834.328125	2.40988792938879E-05
2	378	103.809480737906	0.202789306640625	0.202789306640625	1.01104736328125E-06	2.05029579092297E-07	200573.515625	2.42017285927432E-05
2	379	103.910188737652	0.212860107421875	0.21295166015625	9.9365234375E-07	2.11599910926452E-07	214312.046875	2.43026734096929E-05
2	380	104.010896737398	0.222930908203125	0.22296142578125	9.77783203125E-07	2.18007940588905E-07	228027.46875	2.44019429374021E-05
2	381	104.111604737143	0.233001708984375	0.23297119140625	9.63439941406249E-07	2.2445374270319E-07	241811.859375	2.44996917899698E-05
2	382	104.212312736889	0.243072509765625	0.243133544921875	9.5062255859375E-07	2.31128225891553E-07	255762.453125	2.45960727625061E-05
2	383	104.313020736635	0.253143310546875	0.253143310546875	9.39331054687501E-07	2.37785357626308E-07	269493.1875	2.46912386501208E-05
2	384	104.413728736381	0.263214111328125	0.26318359375	9.2926025390625E-07	2.44566052742812E-07	283218.40625	2.4785329514998E-05
2	385	104.514436736126	0.273284912109375	0.273284912109375	9.2010498046875E-07	2.51450813948395E-07	297014.9375	2.48784526775125E-05
2	386	104.615144735872	0.283355712890625	0.283416748046875	9.11865234375001E-07	2.58437864886218E-07	310809.9375	2.49706990871346E-05
2	387	104.715852735618	0.293426513671875	0.29339599609375	9.04541015625E-07	2.65388706566227E-07	324359	2.50621633313131E-05
2	388	104.816560735364	0.303497314453125	0.303436279296875	8.9752197265625E-07	2.72340713536323E-07	338082.28125	2.51529036177089E-05
2	389	104.917268735109	0.313568115234375	0.3135986328125	8.92333984375E-07	2.79834722505257E-07	351436.40625	2.52430309046758E-05
2	390	105.017976734855	0.323638916015625	0.323638916015625	8.8714599609375E-07	2.87114971797564E-07	364809.09375	2.53326343226945E-05
2	391	105.118684734601	0.333709716796875	0.333740234375	8.82873535156251E-07	2.94650419618847E-07	378015.90625	2.54217629844788E-05
2	392	105.219392734347	0.343780517578125	0.343841552734375	8.7921142578125E-07	3.02309416611024E-07	391079.5	2.5510489649605E-05
2	393	105.320100734092	0.353851318359375	0.353790283203125	8.76464843749999E-07	3.100847436599E-07	403656	2.55988961725961E-05
2	394	105.420808733838	0.363922119140625	0.363922119140625	8.7432861328125E-07	3.18187517223123E-07	416230.375	2.56870553130284E-05
2	395	105.521516733584	0.373992919921875	0.3740234375	8.7310791015625E-07	3.26562798136365E-07	428381.71875	2.57750452874461E-05
2	396	105.62222473333	0.384063720703125	0.38409423828125	8.72192382812501E-07	3.35004045837195E-07	440377.90625	2.5862927941489E-05
2	397	105.722932733075	0.394134521484375	0.394134521484375	8.72192382812501E-07	3.43761115573216E-07	451889.4375	2.59507651207969E-05
2	398	105.823640732821	0.404205322265625	0.40423583984375	8.7188720703125E-07	3.52448068952071E-07	463633.1875	2.60385859292001E-05
2	399	105.924348732567	0.414276123046875	0.414276123046875	8.7188720703125E-07	3.61202040721764E-07	475148.75	2.6126392185688E-05
2	400	106.025056732312	0.424346923828125	0.42437744140625	8.7188720703125E-07	3.7000927477493E-07	486734.34375	2.6214198442176E-05
2	401	106.125764732058	0.434417724609375	0.43438720703125	8.7249755859375E-07	3.79001761530162E-07	497866.40625	2.63020356214838E-05
2	402	106.226472731804	0.444488525390625	0.444488525390625	8.7310791015625E-07	3.88086419889078E-07	509087.75	2.6389932827442E-05
2	403	106.32718073155	0.454559326171875	0.454620361328125	8.740234375E-07	3.9734885604048E-07	520146.65625	2.64779082499444E-05
2	404	106.427888731295	0.464630126953125	0.464569091796875	8.75244140625001E-07	4.06611349035302E-07	530788.0625	2.65659909928218E-05
2	405	106.528596731041	0.474700927734375	0.47467041015625	8.76464843749999E-07	4.16031923577975E-07	541573.8125	2.66541956079891E-05
2	406	106.629304730787	0.484771728515625	0.484832763671875	8.7860107421875E-07	4.25974576501176E-07	551823.5625	2.67425712081604E-05
2	407	106.730012730533	0.494842529296875	0.49481201171875	8.8043212890625E-07	4.35648360053165E-07	562010.4375	2.68311450781766E-05
2	408	106.830720730278	0.504913330078125	0.50494384765625	8.82873535156251E-07	4.45801532578116E-07	571932.25	2.69199354079319E-05
2	409	106.931428730024	0.514984130859375	0.515045166015625	8.85620117187499E-07	4.56134330306668E-07	581564.5	2.70089858531719E-05
2	410	107.03213672977	0.525054931640625	0.5250244140625	8.88977050781251E-07	4.66734633164378E-07	590593.9375	2.70983437076211E-05
2	411	107.132844729516	0.535125732421875	0.53509521484375	8.92333984375E-07	4.77483638405829E-07	599658	2.71880398940993E-05
2	412	107.233552729261	0.545196533203125	0.545135498046875	8.96606445312501E-07	4.8877200242714E-07	607998.625	2.72781198873417E-05
2	413	107.334260729007	0.555267333984375	0.55523681640625	9.0087890625E-07	5.00201110753551E-07	616327.9375	2.73686309810728E-05
2	414	107.434968728753	0.565338134765625	0.565338134765625	9.05761718750001E-07	5.12061603785696E-07	624157.6875	2.74596022791229E-05
2	415	107.535676728499	0.575408935546875	0.575408935546875	9.112548828125E-07	5.24344216046302E-07	631446.75	2.75510956271319E-05
2	416	107.636384728244	0.585479736328125	0.58538818359375	9.17663574218749E-07	5.37189407623373E-07	637911.5625	2.7643189241644E-05
2	417	107.73709272799	0.595550537109375	0.59552001953125	9.25292968749999E-07	5.51030495898885E-07	643601.5625	2.77359904430341E-05
2	418	107.837800727736	0.605621337890625	0.605621337890625	9.3353271484375E-07	5.65367315630283E-07	648741.4375	2.7829588361783E-05
2	419	107.938508727481	0.615692138671875	0.61566162109375	9.43603515624999E-07	5.80940422878484E-07	652458	2.79241103271488E-05
2	420	108.039216727227	0.625762939453125	0.6256103515625	9.552001953125E-07	5.97583152739389E-07	654952.0625	2.80197236861568E-05
2	421	108.139924726973	0.635833740234375	0.6357421875	9.6893310546875E-07	6.15991666563787E-07	656125.9375	2.81166103377473E-05
2	422	108.240632726719	0.645904541015625	0.6458740234375	9.8419189453125E-07	6.35663923276297E-07	656248.125	2.82149576378288E-05
2	423	108.341340726464	0.655975341796875	0.6558837890625	1.00006103515625E-06	6.55923827252991E-07	655843.75	2.83148729067761E-05
2	424	108.44204872621	0.666046142578125	0.666046142578125	1.0162353515625E-06	6.7685959947994E-07	655405.4375	2.84164016193245E-05
2	425	108.542756725956	0.676116943359375	0.676055908203125	1.031494140625E-06	6.97347672939941E-07	655414.25	2.85195128526539E-05
2	426	108.643464725702	0.686187744140625	0.686187744140625	1.04400634765625E-06	7.16384363386169E-07	657263.9375	2.86240228888346E-05
2	427	108.744172725447	0.696258544921875	0.696197509765625	1.0540771484375E-06	7.33845809008926E-07	660480.625	2.87296697933925E-05
2	428	108.844880725193	0.706329345703125	0.706298828125	1.06109619140625E-06	7.49451032788784E-07	665631.25	2.88361770799384E-05
2	429	108.945588724939	0.716400146484375	0.716339111328125	1.065673828125E-06	7.63383809498919E-07	672193.625	2.89432682620827E-05
2	430	109.046296724685	0.726470947265625	0.72637939453125	1.068115234375E-06	7.75856904056127E-07	680057.125	2.90507141471608E-05
2	431	109.14700472443	0.736541748046875	0.7364501953125	1.0693359375E-06	7.87512647093536E-07	688698.6875	2.91583437501686E-05
2	432	109.247712724176	0.746612548828125	0.74658203125	1.06964111328125E-06	7.98574774307781E-07	697974.375	2.92660497507313E-05
2	433	109.348420723922	0.756683349609375	0.75714111328125	1.070556640625E-06	8.10562482911337E-07	707240.5625	2.93738157779444E-05
2	434	109.449128723668	0.766754150390625	0.76751708984375	1.07086181640625E-06	8.21904734493728E-07	716728.4375	2.94816454697866E-05
2	435	109.549836723413	0.776824951171875	0.77728271484375	1.07086181640625E-06	8.32362388791807E-07	725847.8125	2.9589489713544E-05
2	436	109.650544723159	0.786895751953125	0.7867431640625	1.07177734375E-06	8.43213456391823E-07	734054.6875	2.96973794320365E-05
2	437	109.751252722905	0.796966552734375	0.7965087890625	1.072998046875E-06	8.54652341786277E-07	742320.875	2.98053782898933E-05
2	438	109.85196072265	0.807037353515625	0.8074951171875	1.0748291015625E-06	8.67919254687877E-07	751277.6875	2.99135299428599E-05
2	439	109.952668722396	0.817108154296875	0.81756591796875	1.07696533203125E-06	8.80490119925526E-07	759138.5625	3.00218816846609E-05
2	440	110.053376722142	0.827178955078125	0.82763671875	1.07940673828125E-06	8.93356627784669E-07	766751.5	3.01304626191268E-05
2	441	110.154084721888	0.837249755859375	0.83770751953125	1.0821533203125E-06	9.06527930055745E-07	774111.6875	3.02393073070562E-05
2	442	110.254792721633	0.847320556640625	0.84747314453125	1.08489990234375E-06	9.19423484901927E-07	781153.3125	3.03484266623855E-05
2	443	110.355500721379	0.857391357421875	0.8575439453125	1.0882568359375E-06	9.33228022859112E-07	787997.8125	3.0457853426924E-05
2	444	110.456208721125	0.867462158203125	0.8673095703125	1.09161376953125E-06	9.46767045206798E-07	794520.5625	3.05676185234915E-05
2	445	110.556916720871	0.877532958984375	0.8770751953125	1.0955810546875E-06	9.60906959335261E-07	800557.0625	3.06777510559186E-05
2	446	110.657624720616	0.887603759765625	0.88775634765625	1.09954833984375E-06	9.76130991148239E-07	807382.75	3.07882874039933E-05
2	447	110.758332720362	0.897674560546875	0.8978271484375	1.10382080078125E-06	9.91040224107564E-07	813381.3125	3.08992348436732E-05
2	448	110.859040720108	0.907745361328125	0.90789794921875	1.1083984375E-06	1.00631268651341E-06	819107.9375	3.10106297547463E-05
2	449	110.959748719854	0.917816162109375	0.91827392578125	1.11328125E-06	1.02229705589707E-06	824835.5625	3.11224976030644E-05
2	450	111.060456719599	0.927886962890625	0.9283447265625	1.11785888671875E-06	1.03775846582721E-06	830466.8125	3.1234845664585E-05
2	451	111.161164719345	0.937957763671875	0.93780517578125	1.123046875E-06	1.05319918475288E-06	835054.3125	3.13476848532446E-05
2	452	111.261872719091	0.948028564453125	0.948486328125	1.1285400390625E-06	1.07040477814735E-06	840454.3125	3.14610624627676E-05
2	453	111.362580718837	0.958099365234375	0.95855712890625	1.134033203125E-06	1.08703557089029E-06	845263.75	3.15749894070905E-05
2	454	111.463288718582	0.968170166015625	0.9686279296875	1.13983154296875E-06	1.10407268039125E-06	849799.25	3.16894875140861E-05
2	455	111.563996718328	0.978240966796875	0.9783935546875	1.14593505859375E-06	1.12117538719758E-06	853795	3.18045858875848E-05
2	456	111.664704718074	0.988311767578125	0.98846435546875	1.15203857421875E-06	1.13874898488575E-06	858013.3125	3.1920299079502E-05
2	457	111.765412717819	0.998382568359375	0.99822998046875	1.15753173828125E-06	1.15548289159051E-06	862378.0625	3.20365943480283E-05
2	458	111.866120717565	1.00845336914063	1.00860595703125	1.163330078125E-06	1.17334161586768E-06	866999	3.21534607792273E-05
2	459	111.966828717311	1.01852416992188	1.01837158203125	1.16851806640625E-06	1.18998548259697E-06	871507	3.22708765452262E-05
2	460	112.067536717057	1.02859497070313	1.02874755859375	1.1724853515625E-06	1.20619142762735E-06	877407.625	3.23887543345336E-05
2	461	112.168244716802	1.03866577148438	1.03851318359375	1.1773681640625E-06	1.22271239888505E-06	882063.25	3.25070795952342E-05
2	462	112.268952716548	1.04873657226563	1.048583984375	1.18133544921875E-06	1.23872939639114E-06	887626	3.26258523273282E-05
2	463	112.369660716294	1.05880737304688	1.058349609375	1.18560791015625E-06	1.25478766221931E-06	892664.125	3.27450361510273E-05
2	464	112.47036871604	1.06887817382813	1.06842041015625	1.18865966796875E-06	1.26998827454372E-06	898844.6875	3.28645910485648E-05
2	465	112.571076715785	1.07894897460938	1.07879638671875	1.1920166015625E-06	1.28594319903641E-06	905017.9375	3.29844660882372E-05
2	466	112.671784715531	1.08901977539063	1.0888671875	1.1956787109375E-06	1.30193529912503E-06	910668.75	3.31046976498328E-05
2	467	112.772492715277	1.09909057617188	1.09893798828125	1.1993408203125E-06	1.31800118197134E-06	916285	3.32252966472879E-05
2	468	112.873200715023	1.10916137695313	1.1090087890625	1.20330810546875E-06	1.33447929329122E-06	921633.25	3.33462776325177E-05
2	469	112.973908714768	1.11923217773438	1.119384765625	1.20758056640625E-06	1.3517473007596E-06	926964.875	3.34676769853104E-05
2	470	113.074616714514	1.12930297851563	1.129150390625	1.21246337890625E-06	1.36905339331861E-06	931286.25	3.35895347234327E-05
2	471	113.17532471426	1.13937377929688	1.1395263671875	1.21734619140625E-06	1.38719803999265E-06	936074.25	3.3711883588694E-05
2	472	113.276032714006	1.14944458007813	1.14959716796875	1.22314453125E-06	1.40612348786817E-06	939870.25	3.38347745127976E-05
2	473	113.376740713751	1.15951538085938	1.15966796875	1.22833251953125E-06	1.42445787787437E-06	944099.375	3.3958214771701E-05
2	474	113.477448713497	1.16958618164063	1.16973876953125	1.23504638671875E-06	1.44468162943667E-06	947121.3125	3.40822552971076E-05
2	475	113.578156713243	1.17965698242188	1.17919921875	1.24176025390625E-06	1.46428260450193E-06	949619.125	3.42069724865723E-05
2	476	113.678864712988	1.18972778320313	1.1895751953125	1.2493896484375E-06	1.48624280882359E-06	952125.125	3.43324136338197E-05
2	477	113.779572712734	1.19979858398438	1.19964599609375	1.25732421875E-06	1.50834398482402E-06	954126.1875	3.44586369465105E-05
2	478	113.88028071248	1.20986938476563	1.2103271484375	1.265869140625E-06	1.53211567521794E-06	956123.5	3.45856897183694E-05
2	479	113.980988712226	1.21994018554688	1.21978759765625	1.27532958984375E-06	1.55563111547963E-06	956449	3.47136483469512E-05
2	480	114.081696711971	1.23001098632813	1.23016357421875	1.28570556640625E-06	1.58162799834827E-06	956800.4375	3.4842607419705E-05
2	481	114.182404711717	1.24008178710938	1.240234375	1.29638671875E-06	1.60782337843557E-06	956685.5	3.49726251442917E-05
2	482	114.283112711463	1.25015258789063	1.2506103515625	1.3079833984375E-06	1.63577749390242E-06	956136.3125	3.51037670043297E-05
2	483	114.383820711209	1.26022338867188	1.26007080078125	1.32110595703125E-06	1.66468703355349E-06	953799.9375	3.5236149415141E-05
2	484	114.484528710954	1.27029418945313	1.2701416015625	1.33544921875E-06	1.69620955148275E-06	951096.9375	3.53699178958777E-05
2	485	114.5852367107	1.28036499023438	1.28082275390625	1.35009765625E-06	1.72923569152772E-06	948689	3.55051488440949E-05
2	486	114.685944710446	1.29043579101563	1.290283203125	1.36627197265625E-06	1.76287767317262E-06	944382.4375	3.56419259333052E-05
2	487	114.786652710192	1.30050659179688	1.300048828125	1.383056640625E-06	1.7980412394536E-06	939982.3125	3.57803655788302E-05
2	488	114.887360709937	1.31057739257813	1.31103515625	1.4007568359375E-06	1.83644135631766E-06	935947.75	3.59205441782251E-05
2	489	114.988068709683	1.32064819335938	1.32110595703125	1.41937255859375E-06	1.87514149274648E-06	930767.5625	3.60625490429811E-05
2	490	115.088776709429	1.33071899414063	1.33056640625	1.4385986328125E-06	1.91415097106074E-06	924904.5625	3.62064565706532E-05
2	491	115.189484709175	1.34078979492188	1.3409423828125	1.45843505859375E-06	1.95567736227531E-06	919439.25	3.63523358828388E-05
2	492	115.29019270892	1.35086059570313	1.351318359375	1.47857666015625E-06	1.99802775568969E-06	913931.875	3.65002269973047E-05
2	493	115.390900708666	1.36093139648438	1.361083984375	1.49932861328125E-06	2.0407121610333E-06	907795.625	3.66501735697966E-05
2	494	115.491608708412	1.37100219726563	1.370849609375	1.52191162109375E-06	2.08631195164344E-06	900741.9375	3.68023065675516E-05
2	495	115.592316708157	1.38107299804688	1.38092041015625	1.54632568359375E-06	2.13535258808406E-06	893033.375	3.69568042515311E-05
2	496	115.693024707903	1.39114379882813	1.3909912109375	1.57318115234375E-06	2.18828108700109E-06	884190.125	3.71138849004637E-05
2	497	115.793732707649	1.40121459960938	1.4013671875	1.60430908203125E-06	2.24822611016862E-06	873502	3.72738832083996E-05
2	498	115.894440707395	1.41128540039063	1.4117431640625	1.640625E-06	2.31614103540778E-06	860491.0625	3.74372793885414E-05
2	499	115.99514870714	1.42135620117188	1.4208984375	1.68426513671875E-06	2.39316955230606E-06	843631.125	3.76046991732437E-05
2	500	116.095856706886	1.43142700195313	1.4312744140625	1.73492431640625E-06	2.48315268436272E-06	824978.0625	3.77768701582681E-05
2	501	116.196564706632	1.44149780273438	1.44134521484375	1.79412841796875E-06	2.58595832747233E-06	803367.9375	3.79545708710793E-05
2	502	116.297272706378	1.45156860351563	1.45111083984375	1.864013671875E-06	2.70489044851274E-06	778487.25	3.81387762899976E-05
2	503	116.397980706123	1.46163940429688	1.46209716796875	1.9439697265625E-06	2.84227257907332E-06	752119.3125	3.8330523238983E-05
2	504	116.498688705869	1.47171020507813	1.47247314453125	2.03582763671875E-06	2.99770135825383E-06	723279.9375	3.85309213015717E-05
2	505	116.599396705615	1.48178100585938	1.48223876953125	2.13623046875E-06	3.1664035304857E-06	693857.125	3.8741000025766E-05
2	506	116.700104705361	1.49185180664063	1.49200439453125	2.24212646484375E-06	3.3452624847996E-06	665441.6875	3.89614688174333E-05
2	507	116.800812705106	1.50192260742188	1.5020751953125	2.34893798828125E-06	3.52828124050575E-06	639469.9375	3.91926478187088E-05
2	508	116.901520704852	1.49185180664063	1.4923095703125	2.0318603515625E-06	3.03216461361444E-06	734454.8125	3.94132366636768E-05
2	509	117.002228704598	1.48178100585938	1.48193359375	1.80419921875E-06	2.6737034204416E-06	821380.25	3.96063987864181E-05
2	510	117.102936704344	1.47171020507813	1.4715576171875	1.62567138671875E-06	2.39226892517763E-06	905200	3.97791045543272E-05
2	511	117.203644704089	1.46163940429688	1.46148681640625	1.47918701171875E-06	2.16181229006907E-06	988033.875	3.9935446693562E-05
2	512	117.304352703835	1.45156860351563	1.45111083984375	1.3580322265625E-06	1.97065514839778E-06	1068539.375	4.00783137592953E-05
2	513	117.405060703581	1.44149780273438	1.44195556640625	1.2554931640625E-06	1.81036523372313E-06	1148517.375	4.0209914004663E-05
2	514	117.505768703326	1.43142700195313	1.43157958984375	1.1700439453125E-06	1.67501093528699E-06	1223526.375	4.03320518671535E-05
2	515	117.606476703072	1.42135620117188	1.4215087890625	1.0968017578125E-06	1.55911334331904E-06	1296049	4.0446193452226E-05
2	516	117.707184702818	1.41128540039063	1.4111328125	1.03546142578125E-06	1.46117361055076E-06	1362805.75	4.05535611207597E-05
2	517	117.807892702564	1.40121459960938	1.4013671875	9.8297119140625E-07	1.37750362227962E-06	1425644.25	4.06551989726722E-05
2	518	117.908600702309	1.39114379882813	1.39068603515625	9.3841552734375E-07	1.30504133721843E-06	1481951.25	4.0751947381068E-05
2	519	118.009308702055	1.38107299804688	1.38153076171875	9.0057373046875E-07	1.24417022107082E-06	1534056.25	4.08445484936237E-05
2	520	118.110016701801	1.37100219726563	1.370849609375	8.685302734375E-07	1.19062440262496E-06	1578355.625	4.0933631680673E-05
2	521	118.210724701547	1.36093139648438	1.3604736328125	8.4228515625E-07	1.1459067081887E-06	1615217.375	4.10197753808461E-05
2	522	118.311432701292	1.35086059570313	1.35040283203125	8.1817626953125E-07	1.1048675787606E-06	1650503.5	4.11033870477695E-05
2	523	118.412140701038	1.34078979492188	1.34063720703125	7.9803466796875E-07	1.06987499748357E-06	1679923.5	4.11847686336841E-05
2	524	118.512848700784	1.33071899414063	1.33087158203125	7.7972412109375E-07	1.03771265003161E-06	1706849.375	4.12642184528522E-05
2	525	118.61355670053	1.32064819335938	1.32110595703125	7.63549804687499E-07	1.00873012343072E-06	1730215.875	4.13419256801717E-05
2	526	118.714264700275	1.31057739257813	1.31072998046875	7.4920654296875E-07	9.82007463790069E-07	1749490.875	4.14181013184134E-05
2	527	118.814972700021	1.30050659179688	1.300048828125	7.354736328125E-07	9.56151666287042E-07	1767634.875	4.14928581449203E-05
2	528	118.915680699767	1.29043579101563	1.2908935546875	7.2296142578125E-07	9.33266278480005E-07	1785563.5	4.15662980230991E-05
2	529	119.016388699513	1.28036499023438	1.28021240234375	7.1136474609375E-07	9.10697963263374E-07	1799656.75	4.16385228163563E-05
2	530	119.117096699258	1.27029418945313	1.26983642578125	7.0037841796875E-07	8.89365992406965E-07	1813072	4.17096089222468E-05
2	531	119.217804699004	1.26022338867188	1.2603759765625	6.8939208984375E-07	8.68893209826638E-07	1828242.625	4.17795890825801E-05
2	532	119.31851269875	1.25015258789063	1.25	6.7962646484375E-07	8.49533080327092E-07	1839245.625	4.18485251429956E-05
2	533	119.419220698495	1.24008178710938	1.23992919921875	6.695556640625E-07	8.3020165675407E-07	1851868.75	4.19164607592393E-05
2	534	119.519928698241	1.23001098632813	1.23016357421875	6.60095214843751E-07	8.12025120922044E-07	1863615.375	4.1983414121205E-05
2	535	119.620636697987	1.21994018554688	1.21978759765625	6.500244140625E-07	7.92891682976915E-07	1876525.875	4.20493852288928E-05
2	536	119.721344697733	1.20986938476563	1.209716796875	6.40869140625E-07	7.75270166286646E-07	1887619.125	4.21143849962391E-05
2	537	119.822052697478	1.19979858398438	1.19903564453125	6.3201904296875E-07	7.57813324980816E-07	1897151.25	4.21784825448412E-05
2	538	119.922760697224	1.18972778320313	1.18988037109375	6.2286376953125E-07	7.41133362680557E-07	1910338.125	4.22416705987416E-05
2	539	120.02346869697	1.17965698242188	1.17919921875	6.134033203125E-07	7.23324717455398E-07	1922388.125	4.23039200541098E-05
2	540	120.124176696716	1.16958618164063	1.16943359375	6.0455322265625E-07	7.06984792486764E-07	1934376.75	4.23652491008397E-05
2	541	120.224884696461	1.15951538085938	1.1590576171875	5.96008300781251E-07	6.90807951286843E-07	1944700.5	4.24257013946772E-05
2	542	120.325592696207	1.14944458007813	1.1492919921875	5.8624267578125E-07	6.73764020575618E-07	1960437.375	4.24852332798764E-05
2	543	120.426300695953	1.13937377929688	1.1395263671875	5.7647705078125E-07	6.56910742691252E-07	1976707.375	4.25437829107977E-05
2	544	120.527008695699	1.12930297851563	1.12945556640625	5.6640625E-07	6.39730671991856E-07	1994073.25	4.26013284595683E-05
2	545	120.627716695444	1.11923217773438	1.119384765625	5.5694580078125E-07	6.23436619662243E-07	2009863	4.26578953920398E-05
2	546	120.72842469519	1.10916137695313	1.1090087890625	5.46874999999999E-07	6.06489152232825E-07	2027902	4.27134764322545E-05
2	547	120.829132694936	1.09909057617188	1.09893798828125	5.3680419921875E-07	5.89914520787715E-07	2047186	4.27680461143609E-05
2	548	120.929840694682	1.08901977539063	1.0888671875	5.267333984375E-07	5.73542706661101E-07	2067207.375	4.28215971624013E-05
2	549	121.030548694427	1.07894897460938	1.0791015625	5.16662597656251E-07	5.57531393496902E-07	2088600.25	4.28741368523333E-05
2	550	121.131256694173	1.06887817382813	1.0687255859375	5.0628662109375E-07	5.41081419669354E-07	2110910.25	4.29256469942629E-05
2	551	121.231964693919	1.05880737304688	1.05865478515625	4.95300292968751E-07	5.24352003594686E-07	2137399.75	4.29760802944656E-05
2	552	121.332672693664	1.04873657226563	1.04888916015625	4.840087890625E-07	5.07671529703657E-07	2167087.25	4.30253930971958E-05
2	553	121.43338069341	1.03866577148438	1.03851318359375	4.7332763671875E-07	4.91556988890807E-07	2194068.5	4.30735999543685E-05
2	554	121.534088693156	1.02859497070313	1.02874755859375	4.61730957031251E-07	4.75004583222471E-07	2228024	4.31206826760899E-05
2	555	121.634796692902	1.01852416992188	1.0186767578125	4.5013427734375E-07	4.58541336456619E-07	2263050.75	4.31665976066142E-05
2	556	121.735504692647	1.00845336914063	1.00830078125	4.38537597656249E-07	4.42177793047449E-07	2299234.5	4.32113483839203E-05
2	557	121.836212692393	0.998382568359375	0.99822998046875	4.2724609375E-07	4.2648983367144E-07	2336428.75	4.32549422839656E-05
2	558	121.936920692139	0.988311767578125	0.9881591796875	4.16259765625E-07	4.11330887573058E-07	2373900.25	4.32974156865384E-05
2	559	122.037628691885	0.978240966796875	0.97869873046875	4.06799316406251E-07	3.98133948920076E-07	2405851.5	4.33388595411088E-05
2	560	122.13833669163	0.968170166015625	0.968017578125	3.9703369140625E-07	3.84335578473838E-07	2438124.5	4.33793356933165E-05
2	561	122.239044691376	0.958099365234375	0.958251953125	3.88183593749999E-07	3.71977677104951E-07	2468553.5	4.34188768849708E-05
2	562	122.339752691122	0.948028564453125	0.948486328125	3.802490234375E-07	3.60661005061047E-07	2494382	4.3457570427563E-05
2	563	122.440460690868	0.937957763671875	0.9381103515625	3.72314453125E-07	3.49272028188352E-07	2519672.25	4.34954636148177E-05
2	564	122.541168690613	0.927886962890625	0.927734375	3.6590576171875E-07	3.39463326781697E-07	2535446.25	4.35326364822686E-05
2	565	122.641876690359	0.917816162109375	0.91796875	3.59191894531249E-07	3.29726930203833E-07	2555650	4.35691472375765E-05
2	566	122.742584690105	0.907745361328125	0.90789794921875	3.5247802734375E-07	3.20014066801377E-07	2575757.5	4.36049849668052E-05
2	567	122.843292689851	0.897674560546875	0.8978271484375	3.4637451171875E-07	3.10984432871919E-07	2592070.75	4.36401714978274E-05
2	568	122.944000689596	0.887603759765625	0.88775634765625	3.399658203125E-07	3.01806807101457E-07	2611310.5	4.36747322964948E-05
2	569	123.044708689342	0.877532958984375	0.8770751953125	3.338623046875E-07	2.92822335268283E-07	2627056.75	4.37086637248285E-05
2	570	123.145416689088	0.867462158203125	0.86700439453125	3.277587890625E-07	2.84168294228948E-07	2645251.5	4.37419766967651E-05
2	571	123.246124688833	0.857391357421875	0.8575439453125	3.2196044921875E-07	2.7609522135208E-07	2663507.25	4.37746930401772E-05
2	572	123.346832688579	0.847320556640625	0.84716796875	3.16162109375E-07	2.67842409584773E-07	2679536.75	4.38068273069803E-05
2	573	123.447540688325	0.837249755859375	0.83770751953125	3.1005859375E-07	2.59738413888044E-07	2701771.75	4.38383576693013E-05
2	574	123.548248688071	0.827178955078125	0.82733154296875	3.0364990234375E-07	2.51219148594828E-07	2724623.25	4.38692622992676E-05
2	575	123.648956687816	0.817108154296875	0.81695556640625	2.972412109375E-07	2.42832840058327E-07	2748460	4.38995193690062E-05
2	576	123.749664687562	0.807037353515625	0.806884765625	2.9022216796875E-07	2.34175828950356E-07	2780231.5	4.39290997746866E-05
2	577	123.850372687308	0.796966552734375	0.797119140625	2.82897949218749E-07	2.25503356432455E-07	2817691.75	4.39579598605633E-05
2	578	123.951080687054	0.786895751953125	0.78704833984375	2.7587890625E-07	2.17130036617164E-07	2852876.25	4.39860959886573E-05
2	579	124.051788686799	0.776824951171875	0.77667236328125	2.6824951171875E-07	2.08341973007009E-07	2895335.75	4.40134936070535E-05
2	580	124.152496686545	0.766754150390625	0.7666015625	2.60009765624999E-07	1.9932387829158E-07	2948357	4.4040094508091E-05
2	581	124.253204686291	0.756683349609375	0.75653076171875	2.5146484375E-07	1.90240882602666E-07	3008495.25	4.40658477600664E-05
2	582	124.353912686037	0.746612548828125	0.74652099609375	2.423095703125E-07	1.80889173861942E-07	3080856.5	4.40907133452129E-05
2	583	124.454620685782	0.736541748046875	0.736480712890625	2.3162841796875E-07	1.705898569071E-07	3179578.5	4.41145784861874E-05
2	584	124.555328685528	0.726470947265625	0.7264404296875	2.2003173828125E-07	1.59839956381802E-07	3301525.75	4.41373194917105E-05
2	585	124.656036685274	0.716400146484375	0.71636962890625	2.0751953125E-07	1.48660674881285E-07	3452059	4.41588490502909E-05
2	586	124.756744685019	0.706329345703125	0.706207275390625	1.934814453125E-07	1.36638007575129E-07	3650000	4.41790398326702E-05
2	587	124.857452684765	0.696258544921875	0.696197509765625	1.77612304687499E-07	1.236532511939E-07	3919759.5	4.41977281298023E-05
2	588	124.958160684511	0.686187744140625	0.686126708984375	1.61132812500001E-07	1.105575222482E-07	4258144	4.42147829744499E-05
2	589	125.058868684257	0.676116943359375	0.676116943359375	1.44042968749999E-07	9.73898934830686E-08	4693856	4.42301497969311E-05
2	590	125.159576684002	0.666046142578125	0.66595458984375	1.28173828125E-07	8.53579464887844E-08	5195714.5	4.42438577010762E-05
2	591	125.260284683748	0.655975341796875	0.655914306640625	1.1474609375E-07	7.52636069023538E-08	5716223.5	4.42560922238044E-05
2	592	125.360992683494	0.645904541015625	0.6458740234375	1.03759765625E-07	6.70157334070609E-08	6224706	4.42670934717171E-05
2	593	125.46170068324	0.635833740234375	0.635772705078125	9.67407226562494E-08	6.15051121144461E-08	6571924.5	4.42771888629068E-05
2	594	125.562408682985	0.625762939453125	0.625732421875	9.307861328125E-08	5.82423034245494E-08	6722623	4.4286745833233E-05
2	595	125.663116682731	0.615692138671875	0.615692138671875	9.06372070312494E-08	5.58046160392678E-08	6792929	4.42959972133394E-05
2	596	125.763824682477	0.605621337890625	0.6055908203125	9.002685546875E-08	5.45194360768164E-08	6726780	4.4305095798336E-05
2	597	125.864532682223	0.595550537109375	0.59552001953125	9.002685546875E-08	5.36127942041276E-08	6614915.5	4.43141616415232E-05
2	598	125.965240681968	0.585479736328125	0.585418701171875	9.09423828125006E-08	5.32393684693488E-08	6437248.5	4.4323274778435E-05
2	599	126.065948681714	0.575408935546875	0.575439453125	9.18579101562497E-08	5.28586632242423E-08	6264452	4.43324788648169E-05
2	600	126.16665668146	0.565338134765625	0.5653076171875	9.27734375000003E-08	5.24455288086756E-08	6093421.5	4.43417775386479E-05
2	601	126.267364681206	0.555267333984375	0.555206298828125	9.36889648437495E-08	5.20167020567897E-08	5926059	4.43511635239702E-05
2	602	126.368072680951	0.545196533203125	0.545166015625	9.46044921875E-08	5.15751530372199E-08	5762581	4.43606477347203E-05
2	603	126.468780680697	0.535125732421875	0.53509521484375	9.52148437499995E-08	5.09490085676134E-08	5619872	4.43702047050465E-05
2	604	126.569488680443	0.525054931640625	0.52496337890625	9.58251953125003E-08	5.03047168365356E-08	5478344	4.43798235210124E-05
2	605	126.670196680188	0.514984130859375	0.514984130859375	9.58251953125003E-08	4.93484542118949E-08	5374204	4.43894750787877E-05
2	606	126.770904679934	0.504913330078125	0.504852294921875	9.613037109375E-08	4.85316391518609E-08	5251746	4.43991411884781E-05
2	607	126.87161267968	0.494842529296875	0.494781494140625	9.613037109375E-08	4.75635282271014E-08	5146984	4.44088218500838E-05
2	608	126.972320679426	0.484771728515625	0.484832763671875	9.55200195312506E-08	4.6311232182461E-08	5075719	4.4418473407859E-05
2	609	127.073028679171	0.474700927734375	0.474700927734375	9.52148437499995E-08	4.51985755489659E-08	4985577	4.44280776719097E-05
2	610	127.173736678917	0.464630126953125	0.464599609375	9.52148437499995E-08	4.42367777964137E-08	4879487	4.44376637460664E-05
2	611	127.274444678663	0.454559326171875	0.454559326171875	9.46044921875E-08	4.30033537668351E-08	4804839	4.44472243543714E-05
2	612	127.375152678409	0.444488525390625	0.44451904296875	9.36889648437495E-08	4.16465262276233E-08	4744625.5	4.44567049271427E-05
2	613	127.475860678154	0.434417724609375	0.434478759765625	9.33837890624997E-08	4.05732727415398E-08	4652614.5	4.44661236542743E-05
2	614	127.5765686779	0.424346923828125	0.42437744140625	9.21630859374994E-08	3.91119350240388E-08	4604636	4.44754659838509E-05
2	615	127.677276677646	0.414276123046875	0.414276123046875	9.06372070312494E-08	3.75488298232085E-08	4570707	4.44846737082116E-05
2	616	127.777984677392	0.404205322265625	0.404205322265625	8.97216796875003E-08	3.62659804409304E-08	4505102	4.44937541033141E-05
2	617	127.878692677137	0.394134521484375	0.3941650390625	8.85009765625E-08	3.48839890307318E-08	4453793	4.45027289970312E-05
2	618	127.979400676883	0.384063720703125	0.384033203125	8.697509765625E-08	3.34013243730169E-08	4415439	4.45115656475537E-05
2	619	128.080108676629	0.373992919921875	0.3740234375	8.57543945312497E-08	3.20741548875958E-08	4361566	4.45202604169026E-05
2	620	128.180816676375	0.363922119140625	0.3638916015625	8.48388671875006E-08	3.08721510577925E-08	4289208.5	4.4528853322845E-05
2	621	128.28152467612	0.353851318359375	0.353851318359375	8.36181640625003E-08	2.95883957335263E-08	4231752	4.45373334514443E-05
2	622	128.382232675866	0.343780517578125	0.343780517578125	8.30078124999995E-08	2.85364691876566E-08	4141544.25	4.45457262685522E-05
2	623	128.482940675612	0.333709716796875	0.33380126953125	8.17871093750006E-08	2.73006399709175E-08	4081343.5	4.45540208602324E-05
2	624	128.583648675357	0.323638916015625	0.32366943359375	8.087158203125E-08	2.61756589736706E-08	4002264.25	4.4562213588506E-05
2	625	128.684356675103	0.313568115234375	0.31365966796875	7.96508789062497E-08	2.49832670107253E-08	3937931.25	4.45702971774153E-05
2	626	128.785064674849	0.303497314453125	0.303466796875	7.75146484375003E-08	2.35231230050204E-08	3914960.5	4.45782097813208E-05
2	627	128.885772674595	0.293426513671875	0.29339599609375	7.59887695312503E-08	2.22947988959277E-08	3861044.5	4.45859404862858E-05
2	628	128.98648067434	0.283355712890625	0.283355712890625	7.41577148437506E-08	2.10130117750396E-08	3820987.75	4.4593500206247E-05
2	629	129.087188674086	0.273284912109375	0.273223876953125	7.20214843749997E-08	1.96779890160315E-08	3793644	4.46008598373737E-05
2	630	129.187896673832	0.263214111328125	0.263153076171875	7.01904296875E-08	1.84708284223234E-08	3749130.25	4.46080230176449E-05
2	631	129.288604673578	0.253143310546875	0.25311279296875	6.77490234374994E-08	1.71481442379218E-08	3736036.25	4.46149679191876E-05
2	632	129.389312673323	0.243072509765625	0.243072509765625	6.50024414062506E-08	1.58003068406742E-08	3739436.75	4.46216508862562E-05
2	633	129.490020673069	0.233001708984375	0.23297119140625	6.16455078124994E-08	1.43616274428382E-08	3779208	4.46280282631051E-05
2	634	129.590728672815	0.222930908203125	0.222930908203125	5.82885742187497E-08	1.29943247273445E-08	3824607.25	4.46340673079249E-05
2	635	129.691436672561	0.212860107421875	0.212860107421875	5.4931640625E-08	1.1692754320336E-08	3875000	4.46397680207156E-05
2	636	129.792144672306	0.202789306640625	0.202850341796875	5.035400390625E-08	1.02143271618615E-08	4028484.75	4.46450721938163E-05
2	637	129.892852672052	0.192718505859375	0.1927490234375	4.60815429687497E-08	8.88217233097066E-09	4182781.5	4.4649925257545E-05
2	638	129.993560671798	0.182647705078125	0.18267822265625	4.05883789062506E-08	7.41461292363965E-09	4500752	4.46542908321135E-05
2	639	130.094268671544	0.172576904296875	0.172637939453125	3.41796874999994E-08	5.90071058681474E-09	5050893	4.46580561401788E-05
2	640	130.194976671289	0.162506103515625	0.162506103515625	2.68554687500006E-08	4.36417746385587E-09	6051136.5	4.46611302322708E-05
2	641	130.295684671035	0.152435302734375	0.15240478515625	1.77001953125006E-08	2.69759437010464E-09	8610345	4.4663371227216E-05
2	642	130.396392670781	0.142364501953125	0.142425537109375	6.40869140624972E-09	9.12761310978283E-10	22223810	4.46645863121375E-05
2	643	130.497100670526	0.132293701171875	0.13232421875	-8.23974609374945E-09	-1.09031794703895E-09	-16059260	4.46644953626674E-05
2	644	130.597808670272	0.122222900390625	0.122283935546875	-2.65502929687494E-08	-3.24667426276903E-09	-4605747	4.46627418568823E-05
2	645	130.698516670018	0.112152099609375	0.1121826171875	-5.15747070312503E-08	-5.78578562837606E-09	-2175148	4.46588092017919E-05
2	646	130.799224669764	0.102081298828125	0.102142333984375	-8.45336914062495E-08	-8.63446825150049E-09	-1208303.25	4.46519552497193E-05
2	647	130.899932669509	0.092010498046875	0.09210205078125	-1.30310058593749E-07	-1.20018235350017E-08	-706791.5625	4.4641135900747E-05
2	648	131.000640669255	0.081939697265625	0.082000732421875	-1.92871093749999E-07	-1.58155692986384E-08	-425158.25	4.46248632215429E-05
2	649	131.101348669001	0.071868896484375	0.071929931640625	-2.777099609375E-07	-1.99756566843234E-08	-259011	4.46011690655723E-05
2	650	131.202056668747	0.061798095703125	0.06182861328125	-3.9031982421875E-07	-2.41329338734886E-08	-158405	4.45675286755431E-05
2	651	131.302764668492	0.051727294921875	0.0517578125	-5.34973144531251E-07	-2.76890386174955E-08	-96748.4296875	4.45209370809607E-05
2	652	131.403472668238	0.041656494140625	0.0417724609375	-7.1380615234375E-07	-2.98174391843986E-08	-58520.7421875	4.44580582552589E-05
2	653	131.504180667984	0.031585693359375	0.031671142578125	-9.234619140625E-07	-2.92470936358313E-08	-34296.10546875	4.43756143795326E-05
2	654	131.60488866773	0.021514892578125	0.02156982421875	-1.14959716796875E-06	-2.47966074340411E-08	-18762.94140625	4.42712262156419E-05
2	655	131.705596667475	0.011444091796875	0.0115509033203125	-1.37481689453125E-06	-1.58803761252102E-08	-8401.7763671875	4.41441115981434E-05
2	656	131.806304667221	0.001373291015625	0.00145568847656249	-1.57501220703125E-06	-2.29272711926853E-09	-924.239501953125	4.39955765614286E-05
2	657	131.907012666967	-0.008697509765625	-0.0086090087890625	-1.72943115234375E-06	1.48886876161214E-08	4977.94287109375	4.38291863247287E-05
2	658	132.007720666713	-0.018768310546875	-0.01866455078125	-1.82891845703125E-06	3.41359367439509E-08	10205.2392578125	4.36500085925218E-05
2	659	132.108428666458	-0.028839111328125	-0.028717041015625	-1.8707275390625E-06	5.37217594853701E-08	15350.734375	4.34637149737682E-05
2	660	132.209136666204	-0.038909912109375	-0.0387451171875	-1.8658447265625E-06	7.22923658713626E-08	20765.45703125	4.32755659858231E-05
2	661	132.30984466595	-0.048980712890625	-0.0488067626953125	-1.8280029296875E-06	8.9218900711785E-08	26699.501953125	4.30895634053741E-05
2	662	132.410552665695	-0.059051513671875	-0.058929443359375	-1.77001953125E-06	1.04306259629539E-07	33293.10546875	4.29083884228021E-05
2	663	132.511260665441	-0.069122314453125	-0.069061279296875	-1.70318603515625E-06	1.1762420371042E-07	40548.2890625	4.27334998676088E-05
2	664	132.611968665187	-0.079193115234375	-0.07916259765625	-1.63543701171875E-06	1.29465448139854E-07	48404.5546875	4.25653852289543E-05
2	665	132.712676664933	-0.089263916015625	-0.089202880859375	-1.57073974609375E-06	1.40114508440092E-07	56790.36328125	4.24039426434319E-05
2	666	132.813384664678	-0.099334716796875	-0.0992431640625	-1.51092529296875E-06	1.49949002548055E-07	65683.703125	4.22487682953943E-05
2	667	132.914092664424	-0.109405517578125	-0.1092529296875	-1.45751953125E-06	1.5923826879316E-07	74958.125	4.20992946601473E-05
2	668	133.01480066417	-0.119476318359375	-0.119354248046875	-1.409912109375E-06	1.68279001400151E-07	84653.6796875	4.19549105572514E-05
2	669	133.115508663916	-0.129547119140625	-0.1295166015625	-1.3690185546875E-06	1.7731062484927E-07	94605.4453125	4.18149793404154E-05
2	670	133.216216663661	-0.139617919921875	-0.139556884765625	-1.33392333984375E-06	1.86158175097262E-07	104621.375	4.16788752772845E-05
2	671	133.316924663407	-0.149688720703125	-0.1495361328125	-1.3037109375E-06	1.94951880416738E-07	114700.3828125	4.15460599469952E-05
2	672	133.417632663153	-0.159759521484375	-0.15966796875	-1.278076171875E-06	2.04067831077737E-07	124928.3671875	4.14160567743238E-05
2	673	133.518340662899	-0.169830322265625	-0.16973876953125	-1.25579833984375E-06	2.13157662187768E-07	135164.03125	4.12884655816015E-05
2	674	133.619048662644	-0.179901123046875	-0.179718017578125	-1.23779296875E-06	2.22453692799718E-07	145192.3125	4.11629043810535E-05
2	675	133.71975666239	-0.189971923828125	-0.1898193359375	-1.2225341796875E-06	2.32060614280272E-07	155267.109375	4.10390166507568E-05
2	676	133.820464662136	-0.200042724609375	-0.19989013671875	-1.21063232421875E-06	2.41993461713719E-07	165112.1875	4.09164968004916E-05
2	677	133.921172661882	-0.189971923828125	-0.189849853515625	-1.0577392578125E-06	2.00811641093424E-07	179486.4375	4.08022751798853E-05
