Potential - Start -0.2 V, Upper Vertex 1.5 V, Lower Vertex -0.2 V, Stop -0.19 V; Scan - # end cross 5, Rate 0.1 Vps, Step 0.01 V 
Scan	Index	Time (s)	Potential applied (V)	WE(1).Potential (V)	WE(1).Current (A)	WE(1).Power (W)	WE(1).Resistance (Ω)	WE(1).Charge (C)
1	1	64.5065518371366	-0.189971923828125	-0.1898193359375	-2.20947265625E-07	4.19400620899069E-08	859116.0625	0
1	2	64.6072598368823	-0.179901123046875	-0.179718017578125	-1.873779296875E-07	3.36751888596609E-08	959120.5625	-2.05608063907903E-08
1	3	64.7079678366281	-0.169830322265625	-0.169677734375	-1.61132812500001E-07	2.73406488560113E-08	1053030.375	-3.81097144952491E-08
1	4	64.8086758363738	-0.159759521484375	-0.159637451171875	-1.4007568359375E-07	2.236132523592E-08	1139651.375	-5.32767678862456E-08
1	5	64.9093838361196	-0.149688720703125	-0.149566650390625	-1.20849609375E-07	1.80750703293597E-08	1237626.25	-6.64153958496172E-08
1	6	65.0100918358653	-0.139617919921875	-0.13946533203125	-1.0345458984375E-07	1.44283287539793E-08	1348082.625	-7.77100126470032E-08
1	7	65.110799835611	-0.129547119140625	-0.129425048828125	-8.697509765625E-08	1.1256755527711E-08	1488070.25	-8.72989076583508E-08
1	8	65.2115078353568	-0.119476318359375	-0.119415283203125	-7.14111328125003E-08	8.52758041958168E-09	1672222.25	-9.52742880144797E-08
1	9	65.3122158351025	-0.109405517578125	-0.10931396484375	-5.645751953125E-08	6.17159523486066E-09	1936216.25	-1.01712984701408E-07
1	10	65.4129238348482	-0.099334716796875	-0.099212646484375	-4.18090820312494E-08	4.14798950743034E-09	2372992.75	-1.06661104837258E-07
1	11	65.513631834594	-0.089263916015625	-0.0892333984375	-2.593994140625E-08	2.3147090910669E-09	3440000.25	-1.1007253419848E-07
1	12	65.6143398343397	-0.079193115234375	-0.07916259765625	-8.85009765625028E-09	7.00596691771693E-10	8944828	-1.11824355997214E-07
1	13	65.7150478340855	-0.069122314453125	-0.06903076171875	1.12915039062494E-08	-7.79461106770185E-10	-6113513.5	-1.11701417893073E-07
1	14	65.8157558338312	-0.059051513671875	-0.05902099609375	3.44848632812506E-08	-2.03533101483799E-09	-1711504.5	-1.09396395941985E-07
1	15	65.9164638335769	-0.048980712890625	-0.0488616943359375	6.40869140625E-08	-3.1313951431855E-09	-762428.5625	-1.04432913872188E-07
1	16	66.0171718333227	-0.038909912109375	-0.038775634765625	1.019287109375E-07	-3.95235000283378E-09	-380419.1875	-9.60733643751155E-08
1	17	66.1178798330684	-0.028839111328125	-0.0287078857421875	1.51672363281249E-07	-4.3541925620616E-09	-189275.671875	-8.33035329605991E-08
1	18	66.2185878328141	-0.018768310546875	-0.0186248779296875	2.2003173828125E-07	-4.09806411028057E-09	-84646.3203125	-6.45867501702924E-08
1	19	66.3192958325599	-0.008697509765625	-0.00859985351562501	3.125E-07	-2.68745403708692E-09	-27519.53125	-3.77716453670018E-08
1	20	66.4200038323056	0.001373291015625	0.00150146484374999	4.3609619140625E-07	6.5478306110478E-10	3442.96728515625	-7.6834066886633E-11
1	21	66.5207118320513	0.011444091796875	0.011529541015625	5.9967041015625E-07	6.91392409990499E-09	19226.462890625	5.20781568980055E-08
1	22	66.6214198317971	0.021514892578125	0.0216156005859375	8.06579589843751E-07	1.74347025705401E-08	26799.091796875	1.22888465625692E-07
1	23	66.7221278315428	0.031585693359375	0.0316741943359375	1.05499267578125E-06	3.34160397130745E-08	30023.14453125	2.16626077076398E-07
1	24	66.8228358312886	0.041656494140625	0.0417388916015625	1.3360595703125E-06	5.57656427702113E-08	31240.291015625	3.37025113594791E-07
1	25	66.9235438310343	0.051727294921875	0.051727294921875	1.62841796875E-06	8.42336547179912E-08	31765.3671875	4.86298404211993E-07
1	26	67.02425183078	0.061798095703125	0.061859130859375	1.9049072265625E-06	1.17835902813113E-07	32473.56640625	6.64215463075379E-07
1	27	67.1249598305258	0.071868896484375	0.07196044921875	2.1368408203125E-06	1.53768013433364E-07	33676.09375	8.67733660925296E-07
1	28	67.2256678302715	0.081939697265625	0.082000732421875	2.30499267578125E-06	1.89011089446467E-07	35575.26953125	1.09139773485367E-06
1	29	67.3263758300172	0.092010498046875	0.092041015625	2.39715576171875E-06	2.20636636072413E-07	38395.9296875	1.32816967379767E-06
1	30	67.427083829763	0.102081298828125	0.102142333984375	2.42218017578125E-06	2.47407143660894E-07	42169.5859375	1.57084252805362E-06
1	31	67.5277918295087	0.112152099609375	0.1121826171875	2.3944091796875E-06	2.68611103138028E-07	46851.8984375	1.81337702542805E-06
1	32	67.6284998292545	0.122222900390625	0.122222900390625	2.3321533203125E-06	2.85042546011027E-07	52407.74609375	2.05137848752202E-06
1	33	67.7292078290002	0.132293701171875	0.13238525390625	2.25067138671875E-06	2.97955693895346E-07	58820.33984375	2.28214184971876E-06
1	34	67.8299158287459	0.142364501953125	0.14239501953125	2.16156005859375E-06	3.07795374965281E-07	65876.046875	2.5043154892046E-06
1	35	67.9306238284917	0.152435302734375	0.152496337890625	2.0733642578125E-06	3.16180432946567E-07	73550.1953125	2.71756084657682E-06
1	36	68.0313318282374	0.162506103515625	0.162506103515625	1.98944091796875E-06	3.23296262649819E-07	81684.3125	2.92213940156216E-06
1	37	68.1320398279831	0.172576904296875	0.172607421875	1.91131591796875E-06	3.29907294371878E-07	90308.1640625	3.1185579700832E-06
1	38	68.2327478277289	0.182647705078125	0.182708740234375	1.8414306640625E-06	3.36445481252667E-07	99221.0859375	3.30752368427056E-06
1	39	68.3334558274746	0.192718505859375	0.19281005859375	1.778564453125E-06	3.4292511941203E-07	108407.6875	3.48980506714724E-06
1	40	68.4341638272203	0.202789306640625	0.202789306640625	1.7218017578125E-06	3.49162974089268E-07	117777.390625	3.66606241186673E-06
1	41	68.5348718269661	0.212860107421875	0.212890625	1.6705322265625E-06	3.5564062272897E-07	127438.8125	3.83687984140124E-06
1	42	68.6355798267118	0.222930908203125	0.222991943359375	1.62567138671875E-06	3.6251159940548E-07	137169.140625	4.00285716750659E-06
1	43	68.7362878264576	0.233001708984375	0.2330322265625	1.5850830078125E-06	3.69375413811213E-07	147015.796875	4.1645312194305E-06
1	44	68.8369958262033	0.243072509765625	0.2430419921875	1.54876708984375E-06	3.76415414393705E-07	156926.109375	4.32233309766161E-06
1	45	68.937703825949	0.253143310546875	0.253143310546875	1.51580810546875E-06	3.83716667329281E-07	167002.21875	4.47664706371143E-06
1	46	69.0384118256948	0.263214111328125	0.26318359375	1.48651123046875E-06	3.9122537032199E-07	177047.828125	4.62782554677688E-06
1	47	69.1391198254405	0.273284912109375	0.273193359375	1.46026611328125E-06	3.98934986378663E-07	187084.640625	4.77620778838173E-06
1	48	69.2398278251862	0.283355712890625	0.283355712890625	1.43585205078125E-06	4.06856884183071E-07	197343.25	4.9220388973481E-06
1	49	69.340535824932	0.293426513671875	0.293426513671875	1.4141845703125E-06	4.14959259842362E-07	207488.125	5.06554943058291E-06
1	50	69.4412438246777	0.303497314453125	0.303466796875	1.39373779296875E-06	4.22953121415048E-07	217735.9375	5.20693947692052E-06
1	51	69.5419518244234	0.313568115234375	0.313568115234375	1.37542724609375E-06	4.31290118285688E-07	227978.703125	5.34637820237549E-06
1	52	69.6426598241692	0.323638916015625	0.32366943359375	1.358642578125E-06	4.39751062231153E-07	238230.015625	5.48404977962491E-06
1	53	69.7433678239149	0.333709716796875	0.333709716796875	1.3433837890625E-06	4.48300198740981E-07	248409.828125	5.62010745852604E-06
1	54	69.8440758236607	0.343780517578125	0.343780517578125	1.32965087890625E-06	4.57108086493463E-07	258549.453125	5.75470539843081E-06
1	55	69.9447838234064	0.353851318359375	0.35382080078125	1.31744384765625E-06	4.66138999399845E-07	268566.15625	5.88799730394385E-06
1	56	70.0454918231521	0.363922119140625	0.363861083984375	1.30645751953125E-06	4.75369063224207E-07	278509.6875	6.02012096351245E-06
1	57	70.1461998228979	0.373992919921875	0.37396240234375	1.29608154296875E-06	4.84685756418912E-07	288533.0625	6.15116914559621E-06
1	58	70.2469078226436	0.384063720703125	0.384033203125	1.2872314453125E-06	4.94339587930881E-07	298340.46875	6.28124962531729E-06
1	59	70.3476158223893	0.394134521484375	0.394134521484375	1.27899169921875E-06	5.04094771258679E-07	308160.34375	6.41046926830313E-06
1	60	70.4483238221351	0.404205322265625	0.404205322265625	1.27227783203125E-06	5.14261444095609E-07	317702.09375	6.53893584967591E-06
1	61	70.5490318218808	0.414276123046875	0.41424560546875	1.2664794921875E-06	5.24633549048303E-07	327084.34375	6.66677215122036E-06
1	62	70.6497398216266	0.424346923828125	0.42431640625	1.2615966796875E-06	5.35316132754815E-07	336332.875	6.79407094139606E-06
1	63	70.7504478213723	0.434417724609375	0.434478759765625	1.25762939453125E-06	5.46413275515079E-07	345474.40625	6.92092407916789E-06
1	64	70.851155821118	0.444488525390625	0.444549560546875	1.25396728515625E-06	5.57450618998701E-07	354514.46875	7.04739295542822E-06
1	65	70.9518638208638	0.454559326171875	0.454559326171875	1.2518310546875E-06	5.69031442410051E-07	363115.5625	7.17356988388929E-06
1	66	71.0525718206095	0.464630126953125	0.464630126953125	1.25E-06	5.80787627768586E-07	371704.125	7.29954717826331E-06
1	67	71.1532798203552	0.474700927734375	0.474639892578125	1.2481689453125E-06	5.92430751567008E-07	380268.96875	7.42533984521287E-06
1	68	71.253987820101	0.484771728515625	0.4847412109375	1.24786376953125E-06	6.04890999511554E-07	388456.84375	7.55102519178763E-06
1	69	71.3546958198467	0.494842529296875	0.494842529296875	1.24786376953125E-06	6.17496084487357E-07	396551.71875	7.67669553169981E-06
1	70	71.4554038195924	0.504913330078125	0.504913330078125	1.24908447265625E-06	6.30679380719812E-07	404226.75	7.802426807757E-06
1	71	71.5561118193382	0.514984130859375	0.514984130859375	1.251220703125E-06	6.44358749468665E-07	411585.40625	7.92832724982873E-06
1	72	71.6568198190839	0.525054931640625	0.525054931640625	1.2530517578125E-06	6.57921020774666E-07	419020.9375	8.05442687124014E-06
1	73	71.7575278188297	0.535125732421875	0.53509521484375	1.25640869140625E-06	6.72298256176873E-07	425892.65625	8.18078842712566E-06
1	74	71.8582358185754	0.545196533203125	0.545166015625	1.260986328125E-06	6.87446913616441E-07	432333	8.30754925118526E-06
1	75	71.9589438183211	0.555267333984375	0.555267333984375	1.26800537109375E-06	7.040819696158E-07	437906.15625	8.4348939708434E-06
1	76	72.0596518180669	0.565338134765625	0.565277099609375	1.27593994140625E-06	7.21259596048185E-07	443028	8.56299175211461E-06
1	77	72.1603598178126	0.575408935546875	0.57537841796875	1.28631591796875E-06	7.40118366593379E-07	447307.25	8.69201176101342E-06
1	78	72.2610678175583	0.585479736328125	0.58544921875	1.3006591796875E-06	7.61469891585875E-07	450117.3125	8.82227595866425E-06
1	79	72.3617758173041	0.595550537109375	0.595489501953125	1.318359375E-06	7.85069119046966E-07	451689.84375	8.95415450941073E-06
1	80	72.4624838170498	0.605621337890625	0.6055908203125	1.34368896484375E-06	8.13725705484103E-07	450692.71875	9.08819947653683E-06
1	81	72.5631918167956	0.615692138671875	0.61566162109375	1.376953125E-06	8.47737112508185E-07	447118.8125	9.22519393498078E-06
1	82	72.6638998165413	0.625762939453125	0.625732421875	1.424560546875E-06	8.91393710844568E-07	439245.9375	9.36626202019397E-06
1	83	72.764607816287	0.635833740234375	0.63580322265625	1.49169921875E-06	9.48427157254628E-07	426227.5	9.51310721575283E-06
1	84	72.8653158160328	0.645904541015625	0.645843505859375	1.58660888671875E-06	1.02470096408069E-06	407059.0625	9.66811239777599E-06
1	85	72.9660238157785	0.655975341796875	0.655914306640625	1.7193603515625E-06	1.12775296656764E-06	381487.40625	9.83458085102029E-06
1	86	73.0667318155242	0.666046142578125	0.666046142578125	1.9000244140625E-06	1.26550389722979E-06	350546.09375	1.00168317658245E-05
1	87	73.16743981527	0.676116943359375	0.67608642578125	2.13348388671875E-06	1.44241948873969E-06	316893.15625	1.02199346656562E-05
1	88	73.2681478150157	0.686187744140625	0.68609619140625	2.4224853515625E-06	1.66205791174434E-06	283219.96875	1.04493456092314E-05
1	89	73.3688558147614	0.696258544921875	0.69610595703125	2.75909423828125E-06	1.92062179849017E-06	252295.109375	1.07102596302866E-05
1	90	73.4695638145072	0.706329345703125	0.706268310546875	3.12530517578125E-06	2.20730385080969E-06	225983.796875	1.10065620901878E-05
1	91	73.5702718142529	0.716400146484375	0.71630859375	3.49029541015625E-06	2.50012840297131E-06	205228.65625	1.13396845335956E-05
1	92	73.6709798139987	0.726470947265625	0.726348876953125	3.8201904296875E-06	2.77479080068588E-06	190134.21875	1.17077961476753E-05
1	93	73.7716878137444	0.736541748046875	0.736419677734375	4.08203125E-06	3.00608780889888E-06	180405.21875	1.21057046271744E-05
1	94	73.8723958134901	0.746612548828125	0.746490478515625	4.256591796875E-06	3.17750505018921E-06	175372.8125	1.25255874081631E-05
1	95	73.9731038132359	0.756683349609375	0.75653076171875	4.3377685546875E-06	3.28165538121539E-06	174405.515625	1.29583486341289E-05
1	96	74.0738118129816	0.766754150390625	0.7666015625	4.3402099609375E-06	3.32721151607984E-06	176627.765625	1.33953190015745E-05
1	97	74.1745198127273	0.776824951171875	0.7769775390625	4.28466796875E-06	3.3290905321337E-06	181339.046875	1.38296163640916E-05
1	98	74.2752278124731	0.786895751953125	0.78704833984375	4.195556640625E-06	3.30210559695843E-06	187590.9375	1.42566295835422E-05
1	99	74.3759358122188	0.796966552734375	0.7977294921875	4.09393310546875E-06	3.26585109178268E-06	194856.5	1.46740385389421E-05
1	100	74.4766438119645	0.807037353515625	0.806884765625	3.99444580078125E-06	3.22305731970118E-06	202001.6875	1.50813202708378E-05
1	101	74.5773518117103	0.817108154296875	0.81695556640625	3.907470703125E-06	3.19222999678459E-06	209075.28125	1.54792141984217E-05
1	102	74.678059811456	0.827178955078125	0.82733154296875	3.84124755859375E-06	3.17798503601807E-06	215380.96875	1.58693928824505E-05
1	103	74.7787678112018	0.837249755859375	0.83740234375	3.79974365234375E-06	3.18191428050341E-06	220383.90625	1.62541473400779E-05
1	104	74.8794758109475	0.847320556640625	0.84747314453125	3.785400390625E-06	3.20802519127028E-06	223879.390625	1.66360896400874E-05
1	105	74.9801838106932	0.857391357421875	0.85693359375	3.798828125E-06	3.25534324474575E-06	225578.421875	1.70179864653619E-05
1	106	75.080891810439	0.867462158203125	0.86761474609375	3.83697509765625E-06	3.32901595356816E-06	226119.46875	1.74024789885152E-05
1	107	75.1815998101847	0.877532958984375	0.87738037109375	3.89007568359375E-06	3.41307600137952E-06	225543.265625	1.77915662789019E-05
1	108	75.2823078099304	0.887603759765625	0.88775634765625	3.9471435546875E-06	3.50410164173809E-06	224911.09375	1.81862014869694E-05
1	109	75.3830158096762	0.897674560546875	0.89813232421875	3.99566650390625E-06	3.58863690053113E-06	224776.609375	1.85861536010634E-05
1	110	75.4837238094219	0.907745361328125	0.90789794921875	4.02496337890625E-06	3.65425603376934E-06	225566.765625	1.89900256373221E-05
1	111	75.5844318091677	0.917816162109375	0.9185791015625	4.03106689453125E-06	3.70285397366388E-06	227874.9375	1.93956784642069E-05
1	112	75.6851398089134	0.927886962890625	0.927734375	4.014892578125E-06	3.72475369658787E-06	231073.28125	1.98008256120374E-05
1	113	75.7858478086591	0.937957763671875	0.93780517578125	3.98345947265625E-06	3.73570901501807E-06	235424.8125	2.02035735128447E-05
1	114	75.8865558084049	0.948028564453125	0.94818115234375	3.94500732421875E-06	3.74058163288282E-06	240349.65625	2.06028034881456E-05
1	115	75.9872638081506	0.958099365234375	0.95794677734375	3.90625E-06	3.74197929886577E-06	245234.390625	2.0998146283091E-05
1	116	76.0879718078963	0.968170166015625	0.96832275390625	3.87481689453125E-06	3.75207309843972E-06	249901.5625	2.1389952962636E-05
1	117	76.1886798076421	0.978240966796875	0.97869873046875	3.8592529296875E-06	3.777046003961E-06	253597.96875	2.17793949559564E-05
1	118	76.2893878073878	0.988311767578125	0.98846435546875	3.86322021484375E-06	3.81865538656712E-06	255865.390625	2.21682530536782E-05
1	119	76.3900958071335	0.998382568359375	0.99853515625	3.8934326171875E-06	3.88772923543002E-06	256466.53125	2.25588319153758E-05
1	120	76.4908038068793	1.00845336914063	1.0089111328125	3.955078125E-06	3.99032251152676E-06	255092.59375	2.29540346481372E-05
1	121	76.591511806625	1.01852416992188	1.01837158203125	4.04815673828125E-06	4.12252802561852E-06	251564.265625	2.33570299315033E-05
1	122	76.6922198063708	1.02859497070313	1.0284423828125	4.16778564453125E-06	4.28632711191312E-06	246759.921875	2.37707354244776E-05
1	123	76.7929278061165	1.03866577148438	1.0382080078125	4.30450439453125E-06	4.46897092842846E-06	241191.078125	2.41973484662594E-05
1	124	76.8936358058622	1.04873657226563	1.04888916015625	4.44061279296875E-06	4.65771063318243E-06	236203.6875	2.46377003350062E-05
1	125	76.994343805608	1.05880737304688	1.058349609375	4.5587158203125E-06	4.82471523355343E-06	232159.59375	2.50908524321858E-05
1	126	77.0950518053537	1.06887817382813	1.06842041015625	4.64141845703125E-06	4.95898621011293E-06	230192.65625	2.55541162914596E-05
1	127	77.1957598050994	1.07894897460938	1.07879638671875	4.68048095703125E-06	5.0492858463258E-06	230488.375	2.60235119640129E-05
1	128	77.2964678048452	1.08901977539063	1.0894775390625	4.67803955078125E-06	5.09661913383752E-06	232891.90625	2.64947502728319E-05
1	129	77.3971758045909	1.09909057617188	1.09893798828125	4.64202880859375E-06	5.1013016673096E-06	236736.578125	2.69640531769255E-05
1	130	77.4978838043367	1.10916137695313	1.1090087890625	4.5831298828125E-06	5.08273114974145E-06	241976.296875	2.7428577595856E-05
1	131	77.5985918040824	1.11923217773438	1.11968994140625	4.51141357421875E-06	5.05138405060279E-06	248190.5	2.78865227301139E-05
1	132	77.6992998038281	1.12930297851563	1.129150390625	4.43572998046875E-06	5.0086059673049E-06	254557.96875	2.83370482065948E-05
1	133	77.8000078035739	1.13937377929688	1.13983154296875	4.3597412109375E-06	4.96937036587042E-06	261444.78125	2.87799357465701E-05
1	134	77.9007158033196	1.14944458007813	1.14898681640625	4.2877197265625E-06	4.92653316541691E-06	267971.53125	2.92153690679697E-05
1	135	78.0014238030653	1.15951538085938	1.15936279296875	4.2205810546875E-06	4.89318472318701E-06	274692.6875	2.96437956421869E-05
1	136	78.1021318028111	1.16958618164063	1.16943359375	4.1595458984375E-06	4.86431281387922E-06	281144.53125	3.00657684420003E-05
1	137	78.2028398025568	1.17965698242188	1.17889404296875	4.105224609375E-06	4.8396245801996E-06	287169.21875	3.04819332086481E-05
1	138	78.3035478023025	1.18972778320313	1.1895751953125	4.05548095703125E-06	4.82429959447472E-06	293325.3125	3.08928574668244E-05
1	139	78.4042558020483	1.19979858398438	1.1993408203125	4.0118408203125E-06	4.81156439491315E-06	298950.25	3.1299077818403E-05
1	140	78.504963801794	1.20986938476563	1.21002197265625	3.97216796875E-06	4.80641074318555E-06	304625.0625	3.17011072183959E-05
1	141	78.6056718015398	1.21994018554688	1.21978759765625	3.936767578125E-06	4.80202015751274E-06	309844.96875	3.20993531204294E-05
1	142	78.7063798012855	1.23001098632813	1.23046875	3.905029296875E-06	4.80501648780773E-06	315098.46875	3.24942193401512E-05
1	143	78.8070878010312	1.24008178710938	1.23992919921875	3.87664794921875E-06	4.80676908409805E-06	319845.71875	3.28860587615054E-05
1	144	78.907795800777	1.25015258789063	1.25	3.851318359375E-06	4.81414735986618E-06	324564.21875	3.32751915266272E-05
1	145	79.0085038005227	1.26022338867188	1.2603759765625	3.82904052734375E-06	4.82603081763955E-06	329162.34375	3.36619268637151E-05
1	146	79.1092118002684	1.27029418945313	1.2701416015625	3.80950927734375E-06	4.83861640532268E-06	333413.4375	3.40465594490524E-05
1	147	79.2099198000142	1.28036499023438	1.28082275390625	3.79241943359375E-06	4.85741702505038E-06	337732.34375	3.44293475791346E-05
1	148	79.3106277997599	1.29043579101563	1.290283203125	3.7774658203125E-06	4.87400075144251E-06	341573.78125	3.48105204466265E-05
1	149	79.4113357995057	1.30050659179688	1.30096435546875	3.7640380859375E-06	4.89687909066561E-06	345629.96875	3.51902672264259E-05
1	150	79.5120437992514	1.31057739257813	1.3104248046875	3.75274658203125E-06	4.91769242216833E-06	349190.875	3.55687661794946E-05
1	151	79.6127517989971	1.32064819335938	1.32049560546875	3.7432861328125E-06	4.94299274578225E-06	352763.75	3.59462210326456E-05
1	152	79.7134597987429	1.33071899414063	1.33056640625	3.7359619140625E-06	4.97094515594654E-06	356150.96875	3.63228318747133E-05
1	153	79.8141677984886	1.34078979492188	1.34063720703125	3.73046875E-06	5.00120540891658E-06	359375	3.66987951565534E-05
1	154	79.9148757982343	1.35086059570313	1.351318359375	3.726806640625E-06	5.03610226587625E-06	362594.15625	3.70743000530638E-05
1	155	80.0155837979801	1.36093139648438	1.361083984375	3.724365234375E-06	5.06917376696947E-06	365453.96875	3.74494957213756E-05
1	156	80.1162917977258	1.37100219726563	1.370849609375	3.72406005859375E-06	5.10512609253055E-06	368106.21875	3.78245531464927E-05
1	157	80.2169997974715	1.38107299804688	1.38092041015625	3.724365234375E-06	5.14305202159449E-06	370780.09375	3.81996105716098E-05
1	158	80.3177077972173	1.39114379882813	1.3909912109375	3.7261962890625E-06	5.18310616826057E-06	373300.59375	3.85747771360911E-05
1	159	80.418415796963	1.40121459960938	1.4013671875	3.7298583984375E-06	5.22690106663504E-06	375715.9375	3.89502201869618E-05
1	160	80.5191237967088	1.41128540039063	1.41143798828125	3.734130859375E-06	5.27049405718572E-06	377983	3.93260597775225E-05
1	161	80.6198317964545	1.42135620117188	1.42120361328125	3.7396240234375E-06	5.31476689502597E-06	380039.1875	3.97023941332009E-05
1	162	80.7205397962002	1.43142700195313	1.4312744140625	3.74664306640625E-06	5.36247398486012E-06	382015.15625	4.00793578592129E-05
1	163	80.821247795946	1.44149780273438	1.44134521484375	3.7542724609375E-06	5.41120243724436E-06	383921.34375	4.04570600949228E-05
1	164	80.9219557956917	1.45156860351563	1.45172119140625	3.76373291015625E-06	5.46389082956011E-06	385713.125	4.08356208936311E-05
1	165	81.0226637954374	1.46163940429688	1.46148681640625	3.7750244140625E-06	5.51714856555918E-06	387146.3125	4.12152257922571E-05
1	166	81.1233717951832	1.47171020507813	1.47186279296875	3.78875732421875E-06	5.57653083887999E-06	388481.6875	4.15960930695292E-05
1	167	81.2240797949289	1.48178100585938	1.48162841796875	3.80828857421875E-06	5.64246829526382E-06	389053.625	4.19786374550313E-05
1	168	81.3247877946746	1.49185180664063	1.49139404296875	3.83392333984375E-06	5.71788996239775E-06	388999.46875	4.2363451939309E-05
1	169	81.4254957944204	1.50192260742188	1.50146484375	3.870849609375E-06	5.81194444748689E-06	387890.28125	4.27514169132337E-05
1	170	81.5262037941661	1.49185180664063	1.49200439453125	3.64959716796875E-06	5.44521481060656E-06	408813.4375	4.31301014032215E-05
1	171	81.6269117939119	1.48178100585938	1.4813232421875	3.4942626953125E-06	5.17613216288737E-06	423930.15625	4.34898247476667E-05
1	172	81.7276197936576	1.47171020507813	1.47125244140625	3.3734130859375E-06	4.96314214615268E-06	436131.75	4.38356400991324E-05
1	173	81.8283277934033	1.46163940429688	1.46148681640625	3.2757568359375E-06	4.78747551824199E-06	446152.40625	4.41704505647067E-05
1	174	81.9290357931491	1.45156860351563	1.451416015625	3.19427490234375E-06	4.63622154711629E-06	454380.4375	4.44962424808182E-05
1	175	82.0297437928948	1.44149780273438	1.441650390625	3.1243896484375E-06	4.50427751275129E-06	461418.25	4.48144128313288E-05
1	176	82.1304517926405	1.43142700195313	1.43096923828125	3.06396484375E-06	4.38443930761423E-06	467031.875	4.51260202680714E-05
1	177	82.2311597923863	1.42135620117188	1.4215087890625	3.0108642578125E-06	4.27997019869508E-06	472126.5	4.54319124401081E-05
1	178	82.331867792132	1.41128540039063	1.41143798828125	2.9632568359375E-06	4.18245326727629E-06	476313.09375	4.57327332696877E-05
1	179	82.4325757918778	1.40121459960938	1.4007568359375	2.919921875E-06	4.09010044677416E-06	479724.09375	4.6028977521928E-05
1	180	82.5332837916235	1.39114379882813	1.3916015625	2.879638671875E-06	4.00730959881912E-06	483255.65625	4.63210089947097E-05
1	181	82.6339917913692	1.38107299804688	1.380615234375	2.8436279296875E-06	3.92595620724023E-06	485511.90625	4.66091951238923E-05
1	182	82.734699791115	1.37100219726563	1.3714599609375	2.81005859375E-06	3.85388284485089E-06	488053.875	4.68938815174624E-05
1	183	82.8354077908607	1.36093139648438	1.361083984375	2.7777099609375E-06	3.78069626094657E-06	490002.21875	4.71752500743605E-05
1	184	82.9361157906064	1.35086059570313	1.351318359375	2.7484130859375E-06	3.71398095921904E-06	491672.25	4.74535117973574E-05
1	185	83.0368237903522	1.34078979492188	1.3409423828125	2.7203369140625E-06	3.64781499229139E-06	492932.46875	4.77288849651814E-05
1	186	83.1375317900979	1.33071899414063	1.33026123046875	2.694091796875E-06	3.58384590981586E-06	493769.8125	4.80015223729424E-05
1	187	83.2382397898436	1.32064819335938	1.32110595703125	2.66876220703125E-06	3.52571760231513E-06	495025.75	4.82715622638352E-05
1	188	83.3389477895894	1.31057739257813	1.31072998046875	2.6446533203125E-06	3.4664262784645E-06	495615.0625	4.85391174152028E-05
1	189	83.4396557893351	1.30050659179688	1.30035400390625	2.62176513671875E-06	3.40922269970179E-06	495984.15625	4.88043006043881E-05
1	190	83.5403637890809	1.29043579101563	1.2908935546875	2.59979248046875E-06	3.35605523105187E-06	496537.15625	4.90672282467131E-05
1	191	83.6410717888266	1.28036499023438	1.28021240234375	2.57843017578125E-06	3.3009382605087E-06	496508.46875	4.93279731017537E-05
1	192	83.7417797885723	1.27029418945313	1.26983642578125	2.5579833984375E-06	3.24822053698881E-06	496420.90625	4.95866115670651E-05
1	193	83.8424877883181	1.26022338867188	1.259765625	2.5390625E-06	3.19862374453805E-06	496153.84375	4.98432673339266E-05
1	194	83.9431957880638	1.25015258789063	1.2506103515625	2.52044677734375E-06	3.15209672407946E-06	496186	5.00980349897873E-05
1	195	84.0439037878095	1.24008178710938	1.23992919921875	2.5018310546875E-06	3.10209338749701E-06	495608.6875	5.03509254485834E-05
1	196	84.1446117875553	1.23001098632813	1.23046875	2.48443603515625E-06	3.05702087644022E-06	495270.875	5.06020041939337E-05
1	197	84.245319787301	1.21994018554688	1.21978759765625	2.46673583984375E-06	3.00889382742753E-06	494494.625	5.08513148815837E-05
1	198	84.3460277870468	1.20986938476563	1.209716796875	2.4493408203125E-06	2.96300868285471E-06	493894.84375	5.10988611495122E-05
1	199	84.4467357867925	1.19979858398438	1.19964599609375	2.43011474609375E-06	2.91527726403729E-06	493658.1875	5.13445593242068E-05
1	200	84.5474437865382	1.18972778320313	1.1895751953125	2.412109375E-06	2.86938552562788E-06	493168.03125	5.15883839398157E-05
1	201	84.648151786284	1.17965698242188	1.17950439453125	2.39166259765625E-06	2.82097653325764E-06	493173.4375	5.18302731506992E-05
1	202	84.7488597860297	1.16958618164063	1.16943359375	2.36968994140625E-06	2.77119488600874E-06	493496.5	5.2070026868023E-05
1	203	84.8495677857754	1.15951538085938	1.15966796875	2.34466552734375E-06	2.71903354587266E-06	494598.46875	5.23074122611433E-05
1	204	84.9502757855212	1.14944458007813	1.14990234375	2.3150634765625E-06	2.66209690380492E-06	496704.4375	5.25420509802643E-05
1	205	85.0509837852669	1.13937377929688	1.138916015625	2.279052734375E-06	2.59564967564074E-06	499732.1875	5.27733827766497E-05
1	206	85.1516917850126	1.12930297851563	1.12945556640625	2.23388671875E-06	2.52307563641807E-06	505601.125	5.30006254848558E-05
1	207	85.2523997847584	1.11923217773438	1.1187744140625	2.1759033203125E-06	2.43434487856575E-06	514165.5	5.32226767973043E-05
1	208	85.3531077845041	1.10916137695313	1.1090087890625	2.10052490234375E-06	2.32950060308212E-06	527967.4375	5.34380124008749E-05
1	209	85.4538157842499	1.09909057617188	1.0992431640625	2.003173828125E-06	2.20197489397833E-06	548750.8125	5.36446495971177E-05
1	210	85.5545237839956	1.08901977539063	1.0888671875	1.87896728515625E-06	2.04594584829465E-06	579503	5.38401327503379E-05
1	211	85.6552317837413	1.07894897460938	1.07879638671875	1.7266845703125E-06	1.86274110092199E-06	624779.0625	5.40216897206847E-05
1	212	85.7559397834871	1.06887817382813	1.06903076171875	1.54876708984375E-06	1.65567962540081E-06	690246.3125	5.4186621127883E-05
1	213	85.8566477832328	1.05880737304688	1.0589599609375	1.35345458984375E-06	1.43325416956941E-06	782412.6875	5.43327623745427E-05
1	214	85.9573557829785	1.04873657226563	1.0491943359375	1.15478515625E-06	1.21159393984271E-06	908562.4375	5.44590620847885E-05
1	215	86.0580637827243	1.03866577148438	1.038818359375	9.747314453125E-07	1.01256887319323E-06	1065748.375	5.45662915101275E-05
1	216	86.15877178247	1.02859497070313	1.02874755859375	8.2763671875E-07	8.51429263093451E-07	1242994.125	5.4657048167428E-05
1	217	86.2594797822157	1.01852416992188	1.01837158203125	7.2662353515625E-07	7.39972733754257E-07	1401512	5.47353083675262E-05
1	218	86.3601877819615	1.00845336914063	1.00860595703125	6.7169189453125E-07	6.77472428378678E-07	1501590.25	5.48057214473374E-05
1	219	86.4608957817072	0.998382568359375	0.99853515625	6.59790039062499E-07	6.58823523735919E-07	1513413.5	5.48727657587733E-05
1	220	86.561603781453	0.988311767578125	0.98846435546875	6.77490234375E-07	6.69674932396447E-07	1459009	5.49401047464926E-05
1	221	86.6623117811987	0.978240966796875	0.97808837890625	7.10144042968749E-07	6.94583604854415E-07	1377309.875	5.50099757674616E-05
1	222	86.7630197809444	0.968170166015625	0.968017578125	7.45544433593751E-07	7.21700075700937E-07	1298403.625	5.50832774024457E-05
1	223	86.8637277806902	0.958099365234375	0.95855712890625	7.73010253906251E-07	7.40974485324841E-07	1240031.625	5.51597404410131E-05
1	224	86.9644357804359	0.948028564453125	0.9478759765625	7.855224609375E-07	7.44577846489847E-07	1206682.25	5.52382189198397E-05
1	225	87.0651437801816	0.937957763671875	0.9381103515625	7.781982421875E-07	7.30035822016362E-07	1205490.25	5.53169593331404E-05
1	226	87.1658517799274	0.927886962890625	0.927734375	7.46765136718749E-07	6.92799687840306E-07	1242337.625	5.53937461518217E-05
1	227	87.2665597796731	0.917816162109375	0.91827392578125	6.915283203125E-07	6.35012440852734E-07	1327890.5	5.54661710339133E-05
1	228	87.3672677794189	0.907745361328125	0.9075927734375	6.11267089843751E-07	5.5478159310951E-07	1484772.875	5.55317710677627E-05
1	229	87.4679757791646	0.897674560546875	0.8978271484375	5.133056640625E-07	4.60859780559986E-07	1749108.125	5.55883998458739E-05
1	230	87.5686837789103	0.887603759765625	0.88714599609375	4.06799316406251E-07	3.6089036825615E-07	2180795.25	5.56347295059822E-05
1	231	87.6693917786561	0.877532958984375	0.877685546875	3.04260253906249E-07	2.67044839574737E-07	2884654	5.56705344934016E-05
1	232	87.7700997784018	0.867462158203125	0.8673095703125	2.18505859375E-07	1.89512221027144E-07	3969273.75	5.56968589080498E-05
1	233	87.8708077781475	0.857391357421875	0.8575439453125	1.57775878906249E-07	1.35299742964889E-07	5435203.5	5.57158055016771E-05
1	234	87.9715157778933	0.847320556640625	0.8477783203125	1.2481689453125E-07	1.05817058226876E-07	6792176	5.57300336367916E-05
1	235	88.072223777639	0.837249755859375	0.83740234375	1.15051269531249E-07	9.63442019497052E-08	7278515	5.57421117264312E-05
1	236	88.1729317773847	0.827178955078125	0.8270263671875	1.202392578125E-07	9.9441031409242E-08	6878173	5.57539606234059E-05
1	237	88.2736397771305	0.817108154296875	0.81695556640625	1.28784179687499E-07	1.05210951062418E-07	6343602	5.57665007363539E-05
1	238	88.3743477768762	0.807037353515625	0.806884765625	1.300048828125E-07	1.04898958852573E-07	6206573	5.57795319764409E-05
1	239	88.475055776622	0.796966552734375	0.797119140625	1.1260986328125E-07	8.97634748753262E-08	7078591	5.57917483092751E-05
1	240	88.5757637763677	0.786895751953125	0.78704833984375	6.68334960937503E-08	5.26011909585122E-08	11776256	5.5800785048632E-05
1	241	88.6764717761134	0.776824951171875	0.77728271484375	-2.01416015624997E-08	-1.56557184993744E-08	-38590912	5.58031351829413E-05
1	242	88.7771797758592	0.766754150390625	0.7672119140625	-1.57470703125E-07	-1.20813396620179E-07	-4872093.5	5.57941930310335E-05
1	243	88.8778877756049	0.756683349609375	0.75714111328125	-3.5430908203125E-07	-2.68261970859385E-07	-2136951	5.57684215891641E-05
1	244	88.9785957753506	0.746612548828125	0.746551513671875	-6.12792968750001E-07	-4.57481519333669E-07	-1218276.875	5.57197236048523E-05
1	245	89.0793037750964	0.736541748046875	0.736480712890625	-9.2742919921875E-07	-6.83033704262925E-07	-794109.875	5.56421691726428E-05
1	246	89.1800117748421	0.726470947265625	0.72637939453125	-1.2762451171875E-06	-9.27038115605683E-07	-569153.5625	5.55312035430688E-05
1	247	89.2807197745879	0.716400146484375	0.71636962890625	-1.632080078125E-06	-1.1691726058416E-06	-438930.4375	5.53847567061894E-05
1	248	89.3814277743336	0.706329345703125	0.706298828125	-1.9580078125E-06	-1.38293853524374E-06	-360723.21875	5.52039819012862E-05
1	249	89.4821357740793	0.696258544921875	0.6961669921875	-2.2210693359375E-06	-1.54623512571561E-06	-313437.75	5.49935502931476E-05
1	250	89.5828437738251	0.686187744140625	0.686065673828125	-2.393798828125E-06	-1.64230311838764E-06	-286601.25	5.47611707588658E-05
1	251	89.6835517735708	0.676116943359375	0.67608642578125	-2.4725341796875E-06	-1.67164671438513E-06	-273438.65625	5.45161346963141E-05
1	252	89.7842597733165	0.666046142578125	0.666015625	-2.4658203125E-06	-1.64227481036505E-06	-270099.03125	5.4267467930913E-05
1	253	89.8849677730623	0.655975341796875	0.65594482421875	-2.39471435546875E-06	-1.57080046392366E-06	-273913.59375	5.40227192686871E-05
1	254	89.985675772808	0.645904541015625	0.645843505859375	-2.28179931640625E-06	-1.47368518810254E-06	-283041.34375	5.37872401764616E-05
1	255	90.0863837725537	0.635833740234375	0.63580322265625	-2.14752197265625E-06	-1.36540131734364E-06	-296063.6875	5.35642029717565E-05
1	256	90.1870917722995	0.625762939453125	0.625762939453125	-2.0074462890625E-06	-1.2561854418891E-06	-311720.90625	5.33549864485394E-05
1	257	90.2877997720452	0.615692138671875	0.6156005859375	-1.868896484375E-06	-1.1504937447171E-06	-329392.5625	5.31597943336237E-05
1	258	90.388507771791	0.605621337890625	0.6055908203125	-1.73858642578125E-06	-1.05287199403392E-06	-348323.6875	5.29781464138068E-05
1	259	90.4892157715367	0.595550537109375	0.595550537109375	-1.61773681640625E-06	-9.63443994805857E-07	-368138.09375	5.28091404703446E-05
1	260	90.5899237712824	0.585479736328125	0.58551025390625	-1.50848388671875E-06	-8.83232758042141E-07	-388144.875	5.26517214893829E-05
1	261	90.6906317710282	0.575408935546875	0.575408935546875	-1.40869140625E-06	-8.10573567378015E-07	-408470.5625	5.2504830819089E-05
1	262	90.7913397707739	0.565338134765625	0.565338134765625	-1.31927490234375E-06	-7.45836359783425E-07	-428521.875	5.23674680152908E-05
1	263	90.8920477705196	0.555267333984375	0.555328369140625	-1.23779296875E-06	-6.87381543684751E-07	-448644	5.22387090313714E-05
1	264	90.9927557702654	0.545196533203125	0.545196533203125	-1.1639404296875E-06	-6.34576281299815E-07	-468405.875	5.21177717018872E-05
1	265	91.0934637700111	0.535125732421875	0.535186767578125	-1.097412109375E-06	-5.87320414524584E-07	-487680.75	5.20039029652253E-05
1	266	91.1941717697568	0.525054931640625	0.52508544921875	-1.03668212890625E-06	-5.44346676178975E-07	-506505.75	5.18964443472214E-05
1	267	91.2948797695026	0.514984130859375	0.5150146484375	-9.8114013671875E-07	-5.05301557041093E-07	-524914.4375	5.17948392371181E-05
1	268	91.3955877692483	0.504913330078125	0.5048828125	-9.30175781250001E-07	-4.69629753752088E-07	-542782.1875	5.16985965077765E-05
1	269	91.4962957689941	0.494842529296875	0.494842529296875	-8.837890625E-07	-4.37336410641365E-07	-559910.25	5.16072541358881E-05
1	270	91.5970037687398	0.484771728515625	0.484771728515625	-8.39843749999999E-07	-4.07132489499418E-07	-577216.5625	5.15204628754873E-05
1	271	91.6977117684855	0.474700927734375	0.474700927734375	-7.99560546875E-07	-3.79552147933282E-07	-593702.3125	5.14379134983756E-05
1	272	91.7984197682313	0.464630126953125	0.46466064453125	-7.6263427734375E-07	-3.54366136434692E-07	-609283.6875	5.13592494826298E-05
1	273	91.899127767977	0.454559326171875	0.454559326171875	-7.275390625E-07	-3.30709639229099E-07	-624790.3125	5.12842125317547E-05
1	274	91.9998357677227	0.444488525390625	0.444427490234375	-6.9549560546875E-07	-3.09097373474287E-07	-639008.3125	5.12125589011703E-05
1	275	92.1005437674685	0.434417724609375	0.434478759765625	-6.64672851562501E-07	-2.88786225155491E-07	-653673.125	5.1144070312148E-05
1	276	92.2012517672142	0.424346923828125	0.424285888671875	-6.3629150390625E-07	-2.69969490318545E-07	-666810.5625	5.10785612277687E-05
1	277	92.30195976696	0.414276123046875	0.414306640625	-6.0882568359375E-07	-2.52240511144919E-07	-680501.3125	5.10158643010072E-05
1	278	92.4026677667057	0.404205322265625	0.404327392578125	-5.8258056640625E-07	-2.35553258676191E-07	-694028.3125	5.09558703924995E-05
1	279	92.5033757664514	0.394134521484375	0.394134521484375	-5.5755615234375E-07	-2.19752109842375E-07	-706896.5625	5.08984594489448E-05
1	280	92.6040837661972	0.384063720703125	0.38409423828125	-5.33447265625001E-07	-2.04894007538314E-07	-720022.9375	5.08435259689577E-05
1	281	92.7047917659429	0.373992919921875	0.37396240234375	-5.10559082031251E-07	-1.90929895893532E-07	-732456.6875	5.07909535372164E-05
1	282	92.8054997656886	0.363922119140625	0.3638916015625	-4.88891601562499E-07	-1.77903544340552E-07	-744319.625	5.07406293763779E-05
1	283	92.9062077654344	0.353851318359375	0.353851318359375	-4.6844482421875E-07	-1.65759814763078E-07	-755374.5625	5.06924225192051E-05
1	284	93.0069157651801	0.343780517578125	0.343780517578125	-4.4891357421875E-07	-1.54327736368032E-07	-765805.5625	5.06462311022915E-05
1	285	93.1076237649258	0.333709716796875	0.333740234375	-4.302978515625E-07	-1.43607692848491E-07	-775602.875	5.06019569002092E-05
1	286	93.2083317646716	0.323638916015625	0.323699951171875	-4.132080078125E-07	-1.33755406750424E-07	-783382.5625	5.05594834976364E-05
1	287	93.3090397644173	0.313568115234375	0.3135986328125	-3.9703369140625E-07	-1.24509227816816E-07	-789853.9375	5.05186835653149E-05
1	288	93.4097477641631	0.303497314453125	0.303497314453125	-3.814697265625E-07	-1.15775030451459E-07	-795600.0625	5.04794843436684E-05
1	289	93.5104557639088	0.293426513671875	0.29339599609375	-3.66821289062499E-07	-1.07623890244213E-07	-799833.625	5.04418057971634E-05
1	290	93.6111637636545	0.283355712890625	0.2833251953125	-3.52783203125E-07	-9.99523663836044E-08	-803114.1875	5.04055715282448E-05
1	291	93.7118717634003	0.273284912109375	0.27325439453125	-3.40576171875E-07	-9.30639316720772E-08	-802329.8125	5.03706578456331E-05
1	292	93.812579763146	0.263214111328125	0.263214111328125	-3.28979492187501E-07	-8.65920455339619E-08	-800092.75	5.0336941058049E-05
1	293	93.9132877628917	0.253143310546875	0.253143310546875	-3.18603515625E-07	-8.06523416940763E-08	-794540.25	5.0304333854001E-05
1	294	94.0139957626375	0.243072509765625	0.243072509765625	-3.09143066406251E-07	-7.51441788793272E-08	-786278.4375	5.02727234561462E-05
1	295	94.1147037623832	0.233001708984375	0.23297119140625	-3.01208496093749E-07	-7.01729021557185E-08	-773454.875	5.02419898111839E-05
1	296	94.215411762129	0.222930908203125	0.22296142578125	-2.94189453125E-07	-6.55929000004107E-08	-757883.8125	5.02120092278346E-05
1	297	94.3161197618747	0.212860107421875	0.212890625	-2.8961181640625E-07	-6.16556405930169E-08	-735089.5625	5.01826143590733E-05
1	298	94.4168277616204	0.202789306640625	0.20281982421875	-2.86254882812501E-07	-5.80581627218635E-08	-708528.8125	5.0153616030002E-05
1	299	94.5175357613662	0.192718505859375	0.1927490234375	-2.86254882812501E-07	-5.51753487343376E-08	-673347.5625	5.01247886859346E-05
1	300	94.6182437611119	0.182647705078125	0.1826171875	-2.90527343749999E-07	-5.30552846100818E-08	-628571.4375	5.00957430631388E-05
1	301	94.7189517608576	0.172576904296875	0.172576904296875	-2.99987792968751E-07	-5.17709644043407E-08	-575279.75	5.00660098623484E-05
1	302	94.8196597606034	0.162506103515625	0.162506103515625	-3.16467285156249E-07	-5.14278610808105E-08	-513500.5	5.00349669891875E-05
1	303	94.9203677603491	0.152435302734375	0.1524658203125	-3.42712402343751E-07	-5.22519236767494E-08	-444879.8125	5.00017777085304E-05
1	304	95.0210757600948	0.142364501953125	0.14239501953125	-3.826904296875E-07	-5.44932099444395E-08	-372089.3125	4.99652487633284E-05
1	305	95.1217837598406	0.132293701171875	0.132293701171875	-4.41589355468749E-07	-5.84194879138522E-08	-299585.34375	4.99237430631183E-05
1	306	95.2224917595863	0.122222900390625	0.122283935546875	-5.2520751953125E-07	-6.42244373239009E-08	-232829.765625	4.98750596307218E-05
1	307	95.3231997593321	0.112152099609375	0.112152099609375	-6.41479492187499E-07	-7.19432691198563E-08	-174833.5	4.98163135489449E-05
1	308	95.4239077590778	0.102081298828125	0.102142333984375	-7.95593261718749E-07	-8.12637495073432E-08	-128385.125	4.9743950512493E-05
1	309	95.5246157588235	0.092010498046875	0.092071533203125	-9.930419921875E-07	-9.14308984079071E-08	-92716.65625	4.96538850711659E-05
1	310	95.6253237585693	0.081939697265625	0.082000732421875	-1.23199462890625E-06	-1.01024461685029E-07	-66559.328125	4.95418462378439E-05
1	311	95.726031758315	0.071868896484375	0.071868896484375	-1.50299072265625E-06	-1.08018284095124E-07	-47817.2578125	4.94041305501014E-05
1	312	95.8267397580607	0.061798095703125	0.06182861328125	-1.78375244140625E-06	-1.10286940468995E-07	-34662.10546875	4.92386279802304E-05
1	313	95.9274477578065	0.051727294921875	0.051788330078125	-2.04833984375E-06	-1.06080101147654E-07	-25283.07421875	4.90456659463234E-05
1	314	96.0281557575522	0.041656494140625	0.0417877197265625	-2.26715087890625E-06	-9.47390716987684E-08	-18431.822265625	4.8828365834197E-05
1	315	96.1288637572979	0.031585693359375	0.0316864013671875	-2.4212646484375E-06	-7.67211645325006E-08	-13086.716796875	4.85922864754684E-05
1	316	96.2295717570437	0.021514892578125	0.0215911865234375	-2.50152587890625E-06	-5.4010911298974E-08	-8631.20703125	4.83444018755108E-05
1	317	96.3302797567894	0.011444091796875	0.0115203857421875	-2.515869140625E-06	-2.89837824851702E-08	-4579.087890625	4.80917551612947E-05
1	318	96.4309877565352	0.001373291015625	0.00145568847656249	-2.47802734375E-06	-3.60723584336142E-09	-587.4384765625	4.78402944281697E-05
1	319	96.5316957562809	-0.008697509765625	-0.00859375	-2.40753173828125E-06	2.06897254884097E-08	3569.52734375	4.75942870252766E-05
1	320	96.6324037560266	-0.018768310546875	-0.0186187744140625	-2.3193359375E-06	4.31831885805423E-08	8027.63134765625	4.73562686238438E-05
1	321	96.7331117557724	-0.028839111328125	-0.02872314453125	-2.225341796875E-06	6.39188115769684E-08	12907.296875	4.71274288429413E-05
1	322	96.8338197555181	-0.038909912109375	-0.03876953125	-2.13287353515625E-06	8.26905122153221E-08	18177.13671875	4.69079750473611E-05
1	323	96.9345277552638	-0.048980712890625	-0.0488372802734375	-2.04620361328125E-06	9.99310145743948E-08	23867.265625	4.66975398012437E-05
1	324	97.0352357550096	-0.059051513671875	-0.058990478515625	-1.966552734375E-06	1.16007882411395E-07	29996.8984375	4.6495482820319E-05
1	325	97.1359437547553	-0.069122314453125	-0.069091796875	-1.89544677734375E-06	1.3095981898914E-07	36451.45703125	4.63010146631859E-05
1	326	97.2366517545011	-0.079193115234375	-0.07916259765625	-1.832275390625E-06	1.45047678756782E-07	43204.53125	4.61133095086552E-05
1	327	97.3373597542468	-0.089263916015625	-0.0892333984375	-1.77581787109375E-06	1.58462256649727E-07	50249.18359375	4.59316288470291E-05
1	328	97.4380677539925	-0.099334716796875	-0.0992431640625	-1.72637939453125E-06	1.71331350884429E-07	57486.3046875	4.57552778243553E-05
1	329	97.5387757537383	-0.109405517578125	-0.109375	-1.68304443359375E-06	1.84082978194056E-07	64986.40234375	4.55836016044486E-05
1	330	97.639483753484	-0.119476318359375	-0.119384765625	-1.6448974609375E-06	1.96375694372364E-07	72578.8515625	4.54160253866576E-05
1	331	97.7401917532297	-0.129547119140625	-0.129425048828125	-1.611328125E-06	2.08546225621831E-07	80321.96875	4.52520616818219E-05
1	332	97.8408997529755	-0.139617919921875	-0.139495849609375	-1.58203125E-06	2.20686786178703E-07	88175.15625	4.50912630185485E-05
1	333	97.9416077527212	-0.149688720703125	-0.149505615234375	-1.556396484375E-06	2.32690013035608E-07	96058.828125	4.49332292191684E-05
1	334	98.0423157524669	-0.159759521484375	-0.159637451171875	-1.53472900390625E-06	2.45000222776071E-07	104016.703125	4.4777578295907E-05
1	335	98.1430237522127	-0.169830322265625	-0.169677734375	-1.5155029296875E-06	2.57147092952437E-07	111961.34375	4.46239864686504E-05
1	336	98.2437317519584	-0.179901123046875	-0.1796875	-1.4990234375E-06	2.69355751925104E-07	119869.7109375	4.44721954409033E-05
1	337	98.3444397517042	-0.189971923828125	-0.189849853515625	-1.48590087890625E-06	2.82098056914037E-07	127767.515625	4.43218923464883E-05
1	338	98.4451477514499	-0.200042724609375	-0.199920654296875	-1.47491455078125E-06	2.9486585617633E-07	135547.28125	4.41728043369949E-05
1	339	98.5458557511956	-0.189971923828125	-0.1898193359375	-1.3201904296875E-06	2.50597679496423E-07	143781.78125	4.40320582129061E-05
2	340	98.6465637509414	-0.179901123046875	-0.17974853515625	-1.212158203125E-06	2.17883652453565E-07	148288.015625	4.39045434177388E-05
2	341	98.7472717506871	-0.169830322265625	-0.169708251953125	-1.12548828125E-06	1.9100463077848E-07	150786.34375	4.37868329754565E-05
2	342	98.8479797504328	-0.159759521484375	-0.15966796875	-1.05194091796875E-06	1.67961260899574E-07	151784.15625	4.36771915701684E-05
2	343	98.9486877501786	-0.149688720703125	-0.14959716796875	-9.87854003906249E-07	1.47780156112276E-07	151436.53125	4.35744805145077E-05
2	344	99.0493957499243	-0.139617919921875	-0.1395263671875	-9.3109130859375E-07	1.29911782664749E-07	149852.515625	4.34778521594126E-05
2	345	99.1501037496701	-0.129547119140625	-0.129425048828125	-8.7890625E-07	1.13752484764973E-07	147256.953125	4.33867135143373E-05
2	346	99.2508117494158	-0.119476318359375	-0.119384765625	-8.30993652343751E-07	9.920798049734E-08	143665.078125	4.33006134699099E-05
2	347	99.3515197491615	-0.109405517578125	-0.109283447265625	-7.86743164062501E-07	8.59780016071454E-08	138906.125	4.32191518484615E-05
2	348	99.4522277489073	-0.099334716796875	-0.099212646484375	-7.44018554687501E-07	7.38160537139265E-08	133347	4.31420739914756E-05
2	349	99.552935748653	-0.089263916015625	-0.08917236328125	-7.03125E-07	6.26993212904381E-08	126822.9140625	4.30692052759696E-05
2	350	99.6536437483987	-0.079193115234375	-0.0791015625	-6.622314453125E-07	5.23835375076942E-08	119447.015625	4.30004511144944E-05
2	351	99.7543517481445	-0.069122314453125	-0.069061279296875	-6.2103271484375E-07	4.28893152104592E-08	111203.9296875	4.29358333349228E-05
2	352	99.8550597478902	-0.059051513671875	-0.058990478515625	-5.7647705078125E-07	3.4006657045893E-08	102329.28125	4.28755374741741E-05
2	353	99.9557677476359	-0.048980712890625	-0.0488555908203125	-5.2764892578125E-07	2.57786005875005E-08	92591.09375	4.28199382440653E-05
2	354	100.056475747382	-0.038909912109375	-0.0388092041015625	-4.70581054687499E-07	1.82628756562053E-08	82470.8125	4.27696722908877E-05
2	355	100.157183747127	-0.028839111328125	-0.0286865234375	-4.02221679687501E-07	1.15383418375359E-08	71320.1796875	4.2725725506898E-05
2	356	100.257891746873	-0.018768310546875	-0.01866455078125	-3.1585693359375E-07	5.89532778150215E-09	59091.78515625	4.26895676355343E-05
2	357	100.358599746619	-0.008697509765625	-0.00859680175781249	-2.06604003906249E-07	1.7761336845723E-09	41610.046875	4.26632577728014E-05
2	358	100.459307746365	0.001373291015625	0.00144042968749999	-6.50024414062506E-08	-9.36314428767737E-11	-22159.625	4.26495826104656E-05
2	359	100.56001574611	0.011444091796875	0.0115386962890625	1.1566162109375E-07	1.33458433193567E-09	99762.53125	4.26521328336094E-05
2	360	100.660723745856	0.021514892578125	0.021636962890625	3.387451171875E-07	7.32941529690834E-09	63873.875	4.2675015720306E-05
2	361	100.761431745602	0.031585693359375	0.0317047119140625	6.0272216796875E-07	1.91091320544956E-08	52602.53515625	4.27224222221412E-05
2	362	100.862139745348	0.041656494140625	0.041729736328125	8.984375E-07	3.74915600787062E-08	46447.01171875	4.27980085078161E-05
2	363	100.962847745093	0.051727294921875	0.051788330078125	1.202392578125E-06	6.22699047880815E-08	43071.06640625	4.29037936555687E-05
2	364	101.063555744839	0.061798095703125	0.061798095703125	1.48956298828125E-06	9.20521543434916E-08	41487.40234375	4.3039344745921E-05
2	365	101.164263744585	0.071868896484375	0.071868896484375	1.729736328125E-06	1.24314240679269E-07	41549.05078125	4.32014494435862E-05
2	366	101.264971744331	0.081939697265625	0.08197021484375	1.9049072265625E-06	1.56145659957474E-07	43031.08203125	4.33844688814133E-05
2	367	101.365679744076	0.092010498046875	0.092071533203125	2.005615234375E-06	1.84660066793185E-07	45906.87890625	4.3581378122326E-05
2	368	101.466387743822	0.102081298828125	0.102081298828125	2.03765869140625E-06	2.08006824209406E-07	50097.3515625	4.37849739682861E-05
2	369	101.567095743568	0.112152099609375	0.112213134765625	2.01812744140625E-06	2.26460400654105E-07	55602.6015625	4.39891991845798E-05
2	370	101.667803743313	0.122222900390625	0.122222900390625	1.96319580078125E-06	2.39947468116952E-07	62257.11328125	4.41896772827022E-05
2	371	101.768511743059	0.132293701171875	0.13232421875	1.88995361328125E-06	2.50086628739155E-07	70014.5390625	4.4383697968442E-05
2	372	101.869219742805	0.142364501953125	0.142425537109375	1.8096923828125E-06	2.57746393117486E-07	78701.5234375	4.45699879492167E-05
2	373	101.969927742551	0.152435302734375	0.152435302734375	1.72882080078125E-06	2.63533308952901E-07	88172.9921875	4.47481688752305E-05
2	374	102.070635742296	0.162506103515625	0.162567138671875	1.65283203125E-06	2.68696169314353E-07	98356.7265625	4.49184481112752E-05
2	375	102.171343742042	0.172576904296875	0.172607421875	1.58294677734375E-06	2.73228351943544E-07	109041.8359375	4.50813822681084E-05
2	376	102.272051741788	0.182647705078125	0.18267822265625	1.52069091796875E-06	2.77797084891063E-07	120128.4453125	4.52376625617035E-05
2	377	102.372759741534	0.192718505859375	0.1927490234375	1.46484375E-06	2.82347201618904E-07	131583.328125	4.53879947599489E-05
2	378	102.473467741279	0.202789306640625	0.202880859375	1.4154052734375E-06	2.87158627543249E-07	143337.65625	4.55330264230724E-05
2	379	102.574175741025	0.212860107421875	0.212890625	1.37115478515625E-06	2.91905990934538E-07	155263.75	4.5673343265662E-05
2	380	102.674883740771	0.222930908203125	0.222900390625	1.3323974609375E-06	2.96991913728561E-07	167292.71875	4.58094764326233E-05
2	381	102.775591740517	0.233001708984375	0.233001708984375	1.2982177734375E-06	3.02486938608126E-07	179478.140625	4.59419388789684E-05
2	382	102.876299740262	0.243072509765625	0.24310302734375	1.268310546875E-06	3.08330129428214E-07	191674.703125	4.60711744381115E-05
2	383	102.977007740008	0.253143310546875	0.253173828125	1.24114990234375E-06	3.14226667796902E-07	203983.28125	4.6197535993997E-05
2	384	103.077715739754	0.263214111328125	0.263214111328125	1.21673583984375E-06	3.20262017794448E-07	216328.078125	4.63213000330143E-05
2	385	103.1784237395	0.273284912109375	0.27325439453125	1.19537353515625E-06	3.26641071524136E-07	228593.3125	4.64427575934678E-05
2	386	103.279131739245	0.283355712890625	0.283355712890625	1.17584228515625E-06	3.33181617406808E-07	240981.0625	4.65621596958954E-05
2	387	103.379839738991	0.293426513671875	0.29345703125	1.158447265625E-06	3.39954510764073E-07	253319.28125	4.66796991531737E-05
2	388	103.480547738737	0.303497314453125	0.303497314453125	1.142578125E-06	3.46769382986167E-07	265625	4.67955651402008E-05
2	389	103.581255738482	0.313568115234375	0.313629150390625	1.12823486328125E-06	3.53847354972459E-07	277982.15625	4.69099104520865E-05
2	390	103.681963738228	0.323638916015625	0.3236083984375	1.11572265625E-06	3.61057203690507E-07	290043.78125	4.70229024358559E-05
2	391	103.782671737974	0.333709716796875	0.333709716796875	1.10382080078125E-06	3.68355699720269E-07	302322.375	4.71346647827886E-05
2	392	103.88337973772	0.343780517578125	0.34381103515625	1.09283447265625E-06	3.75728518520191E-07	314604.875	4.72452738904394E-05
2	393	103.984087737465	0.353851318359375	0.353851318359375	1.08367919921875E-06	3.83461298270049E-07	326527.75	4.73548716399819E-05
2	394	104.084795737211	0.363922119140625	0.363922119140625	1.0760498046875E-06	3.91598319993136E-07	338201.9375	4.74636217404623E-05
2	395	104.185503736957	0.373992919921875	0.37396240234375	1.068115234375E-06	3.99434952669253E-07	350114.28125	4.75715896754991E-05
2	396	104.286211736703	0.384063720703125	0.384063720703125	1.06201171875E-06	4.07880179409403E-07	361637.9375	4.76788518426474E-05
2	397	104.386919736448	0.394134521484375	0.39410400390625	1.0565185546875E-06	4.16378156842256E-07	373021.40625	4.77855282952078E-05
2	398	104.487627736194	0.404205322265625	0.404266357421875	1.05224609375E-06	4.25387668201438E-07	384193.75	4.78917099826504E-05
2	399	104.58833573594	0.414276123046875	0.414337158203125	1.04827880859375E-06	4.34340876154238E-07	395254.71875	4.79974805784877E-05
2	400	104.689043735686	0.424346923828125	0.42431640625	1.04522705078125E-06	4.43506962710671E-07	405956.21875	4.81028982903808E-05
2	401	104.789751735431	0.434417724609375	0.434356689453125	1.04248046875E-06	4.52808365025703E-07	416656.90625	4.82080213259906E-05
2	402	104.890459735177	0.444488525390625	0.44451904296875	1.0406494140625E-06	4.62588474192671E-07	427155.4375	4.83129151689354E-05
2	403	104.991167734923	0.454559326171875	0.454559326171875	1.03912353515625E-06	4.72343288038246E-07	437444.9375	4.84176416648552E-05
2	404	105.091875734669	0.464630126953125	0.464630126953125	1.038818359375E-06	4.82666337120463E-07	447267.90625	4.85222735733259E-05
2	405	105.192583734414	0.474700927734375	0.474700927734375	1.03851318359375E-06	4.92983133426605E-07	457096.71875	4.86268763779663E-05
2	406	105.29329173416	0.484771728515625	0.48480224609375	1.038818359375E-06	5.03621492953243E-07	466686.25	4.87314791826066E-05
2	407	105.393999733906	0.494842529296875	0.494842529296875	1.0394287109375E-06	5.14353473590745E-07	476071.65625	4.88361256429926E-05
2	408	105.494707733651	0.504913330078125	0.504852294921875	1.0406494140625E-06	5.2537421879606E-07	485131.96875	4.89408666908275E-05
2	409	105.595415733397	0.514984130859375	0.514923095703125	1.04278564453125E-06	5.36954360086384E-07	493795.75	4.90457750856876E-05
2	410	105.696123733143	0.525054931640625	0.525054931640625	1.04583740234375E-06	5.49122091797472E-07	502042.59375	4.91509454150219E-05
2	411	105.796831732889	0.535125732421875	0.535186767578125	1.0498046875E-06	5.61841545732022E-07	509796.5625	4.92564686283004E-05
2	412	105.897539732634	0.545196533203125	0.545166015625	1.05438232421875E-06	5.74813384446315E-07	517047.75	4.93624247610569E-05
2	413	105.99824773238	0.555267333984375	0.555206298828125	1.06109619140625E-06	5.89127296279912E-07	523238.40625	4.94689484185074E-05
2	414	106.098955732126	0.565338134765625	0.565338134765625	1.0693359375E-06	6.04536353421281E-07	528681.5	4.95762214995921E-05
2	415	106.199663731872	0.575408935546875	0.575347900390625	1.08062744140625E-06	6.21736717221211E-07	532420.25	4.96844804729335E-05
2	416	106.300371731617	0.585479736328125	0.585479736328125	1.0955810546875E-06	6.41440522031189E-07	534401.125	4.97940636705607E-05
2	417	106.401079731363	0.595550537109375	0.59552001953125	1.11541748046875E-06	6.64253434479178E-07	533898.75	4.99053967359941E-05
2	418	106.501787731109	0.605621337890625	0.605560302734375	1.1419677734375E-06	6.91530374297145E-07	530277.9375	5.00190653838217E-05
2	419	106.602495730855	0.615692138671875	0.61566162109375	1.1785888671875E-06	7.256119261001E-07	522371.84375	5.01359136251267E-05
2	420	106.7032037306	0.625762939453125	0.625732421875	1.2298583984375E-06	7.69562291225157E-07	508784.125	5.02571892866399E-05
2	421	106.803911730346	0.635833740234375	0.635772705078125	1.302490234375E-06	8.28087706850056E-07	488120.90625	5.03847004438285E-05
2	422	106.904619730092	0.645904541015625	0.645904541015625	1.405029296875E-06	9.07514788650587E-07	459708.96875	5.0521037337603E-05
2	423	107.005327729838	0.655975341796875	0.65594482421875	1.54541015625E-06	1.01370380889421E-06	424447.09375	5.06696014781483E-05
2	424	107.106035729583	0.666046142578125	0.66595458984375	1.7340087890625E-06	1.15477109829953E-06	384054.9375	5.0834732974181E-05
2	425	107.206743729329	0.676116943359375	0.675994873046875	1.97662353515625E-06	1.33618732434115E-06	341994.75	5.10215795657132E-05
2	426	107.307451729075	0.686187744140625	0.686126708984375	2.27447509765625E-06	1.56057808453625E-06	301663.78125	5.12356382387225E-05
2	427	107.40815972882	0.696258544921875	0.696197509765625	2.61810302734375E-06	1.82271685389424E-06	265916.78125	5.14820021635387E-05
2	428	107.508867728566	0.706329345703125	0.706298828125	2.99072265625E-06	2.11234396374493E-06	236163.265625	5.17644257342909E-05
2	429	107.609575728312	0.716400146484375	0.71630859375	3.3599853515625E-06	2.40678627960733E-06	213188.015625	5.20842113473918E-05
2	430	107.710283728058	0.726470947265625	0.726348876953125	3.69293212890625E-06	2.68235703515529E-06	196686.234375	5.24393544765189E-05
2	431	107.810991727803	0.736541748046875	0.736480712890625	3.95599365234375E-06	2.91351307168952E-06	186168.328125	5.28245072928257E-05
2	432	107.911699727549	0.746612548828125	0.746551513671875	4.130859375E-06	3.08389940073539E-06	180725.46875	5.32317135366611E-05
2	433	108.012407727295	0.756683349609375	0.75653076171875	4.2120361328125E-06	3.18653474096209E-06	179611.65625	5.365180913941E-05
2	434	108.113115727041	0.766754150390625	0.76690673828125	4.21356201171875E-06	3.23140920954756E-06	182009.125	5.40760738658719E-05
2	435	108.213823726786	0.776824951171875	0.77667236328125	4.1583251953125E-06	3.22965638588357E-06	186775.28125	5.44976319361012E-05
2	436	108.314531726532	0.786895751953125	0.78704833984375	4.07012939453125E-06	3.20338858728064E-06	193371.828125	5.49119686183985E-05
2	437	108.415239726278	0.796966552734375	0.797119140625	3.96881103515625E-06	3.16361524710373E-06	200845.828125	5.5316759244306E-05
2	438	108.515947726024	0.807037353515625	0.80718994140625	3.8702392578125E-06	3.1240181215253E-06	208563.328125	5.57114872208331E-05
2	439	108.616655725769	0.817108154296875	0.81695556640625	3.78448486328125E-06	3.09175584334298E-06	215869.6875	5.60969347134233E-05
2	440	108.717363725515	0.827178955078125	0.82733154296875	3.71917724609375E-06	3.07699247059645E-06	222450.15625	5.6474771554349E-05
2	441	108.818071725261	0.837249755859375	0.83740234375	3.6785888671875E-06	3.08045900965226E-06	227642.28125	5.68472787563223E-05
2	442	108.918779725007	0.847320556640625	0.84747314453125	3.66363525390625E-06	3.1048323307914E-06	231320.28125	5.72169919905718E-05
2	443	109.019487724752	0.857391357421875	0.8575439453125	3.675537109375E-06	3.15193460664887E-06	233311.1875	5.75865451537538E-05
2	444	109.120195724498	0.867462158203125	0.8673095703125	3.70941162109375E-06	3.21720813190041E-06	233813.25	5.79584084334783E-05
2	445	109.220903724244	0.877532958984375	0.87677001953125	3.75762939453125E-06	3.29457657244348E-06	233330.640625	5.83344044571277E-05
2	446	109.321611723989	0.887603759765625	0.88714599609375	3.80889892578125E-06	3.37904930347577E-06	232914.03125	5.87154099775944E-05
2	447	109.422319723735	0.897674560546875	0.897216796875	3.851318359375E-06	3.45546732205548E-06	232963.5625	5.91011303185951E-05
2	448	109.523027723481	0.907745361328125	0.90789794921875	3.87664794921875E-06	3.51960079569835E-06	234196.640625	5.94902667216957E-05
2	449	109.623735723227	0.917816162109375	0.91766357421875	3.87969970703125E-06	3.56025907422008E-06	236529.53125	5.98808292124886E-05
2	450	109.724443722972	0.927886962890625	0.92864990234375	3.86322021484375E-06	3.58757893081929E-06	240382.34375	6.02707150392234E-05
2	451	109.825151722718	0.937957763671875	0.9381103515625	3.83270263671875E-06	3.59549790118763E-06	244764.71875	6.06582361797336E-05
2	452	109.925859722464	0.948028564453125	0.9478759765625	3.79638671875E-06	3.59850378117699E-06	249678.46875	6.10423885518685E-05
2	453	110.02656772221	0.958099365234375	0.95794677734375	3.76129150390625E-06	3.60311719305173E-06	254685.59375	6.14229502389207E-05
2	454	110.127275721955	0.968170166015625	0.968017578125	3.7347412109375E-06	3.61529509973479E-06	259192.6875	6.18004050920717E-05
2	455	110.227983721701	0.978240966796875	0.97869873046875	3.7237548828125E-06	3.64443417311122E-06	262825.78125	6.2175968196243E-05
2	456	110.328691721447	0.988311767578125	0.98846435546875	3.7335205078125E-06	3.69045164916315E-06	264753.96875	6.25514730927534E-05
2	457	110.429399721193	0.998382568359375	0.99884033203125	3.7701416015625E-06	3.7657694065274E-06	264934.4375	6.2929313571658E-05
2	458	110.530107720938	1.00845336914063	1.00860595703125	3.8360595703125E-06	3.8690723158652E-06	262927.625	6.33123199804686E-05
2	459	110.630815720684	1.01852416992188	1.0186767578125	3.93280029296875E-06	4.00625231122831E-06	259020.734375	6.37035118415952E-05
2	460	110.73152372043	1.02859497070313	1.02874755859375	4.0557861328125E-06	4.1723801587068E-06	253649.359375	6.41057704342529E-05
2	461	110.832231720176	1.03866577148438	1.03912353515625	4.19403076171875E-06	4.35811580246082E-06	247762.5	6.45211766823195E-05
2	462	110.932939719921	1.04873657226563	1.04827880859375	4.3304443359375E-06	4.53951315648737E-06	242071.875	6.49504218017682E-05
2	463	111.033647719667	1.05880737304688	1.0589599609375	4.44671630859375E-06	4.70889426651411E-06	238144.265625	6.53923852951266E-05
2	464	111.134355719413	1.06887817382813	1.0687255859375	4.5263671875E-06	4.8374440666521E-06	236111.125	6.58442149870098E-05
2	465	111.235063719158	1.07894897460938	1.07879638671875	4.564208984375E-06	4.92385197503609E-06	236360	6.63019600324333E-05
2	466	111.335771718904	1.08901977539063	1.0888671875	4.5599365234375E-06	4.96516486236942E-06	238790	6.67614003759809E-05
2	467	111.43647971865	1.09909057617188	1.09893798828125	4.52301025390625E-06	4.97050723424763E-06	242966.078125	6.72187597956508E-05
2	468	111.537187718396	1.10916137695313	1.1090087890625	4.462890625E-06	4.94938467454631E-06	248495.625	6.76712370477617E-05
2	469	111.637895718141	1.11923217773438	1.11907958984375	4.39056396484375E-06	4.91339051222894E-06	254882.890625	6.81170422467403E-05
2	470	111.738603717887	1.12930297851563	1.129150390625	4.3133544921875E-06	4.87042598251719E-06	261780.09375	6.85553241055459E-05
2	471	111.839311717633	1.13937377929688	1.1395263671875	4.23614501953125E-06	4.82719860883662E-06	269000.8125	6.89858206897043E-05
2	472	111.940019717379	1.14944458007813	1.1492919921875	4.16290283203125E-06	4.78439096696093E-06	276079.46875	6.94087502779439E-05
2	473	112.040727717124	1.15951538085938	1.15997314453125	4.09454345703125E-06	4.74956050311448E-06	283297.3125	6.9824542151764E-05
2	474	112.14143571687	1.16958618164063	1.16943359375	4.031982421875E-06	4.71513567390502E-06	290039.375	7.02337492839433E-05
2	475	112.242143716616	1.17965698242188	1.17950439453125	3.974609375E-06	4.68806911158026E-06	296759.84375	7.06369100953452E-05
2	476	112.342851716362	1.18972778320313	1.1895751953125	3.9227294921875E-06	4.66638130092178E-06	303251.90625	7.10345775587484E-05
2	477	112.443559716107	1.19979858398438	1.199951171875	3.875732421875E-06	4.6506897888321E-06	309606.28125	7.14272609911859E-05
2	478	112.544267715853	1.20986938476563	1.209716796875	3.8336181640625E-06	4.63759215563186E-06	315554.875	7.18154551577754E-05
2	479	112.644975715599	1.21994018554688	1.2200927734375	3.79669189453125E-06	4.63231617686688E-06	321356.8125	7.219966937555E-05
2	480	112.745683715345	1.23001098632813	1.2298583984375	3.76220703125E-06	4.62698199044098E-06	326898.125	7.25802892702632E-05
2	481	112.84639171509	1.24008178710938	1.240234375	3.73199462890625E-06	4.62854814031743E-06	332324.8125	7.29576568119228E-05
2	482	112.947099714836	1.25015258789063	1.25030517578125	3.704833984375E-06	4.63217293145135E-06	337479.40625	7.3332128522452E-05
2	483	113.047807714582	1.26022338867188	1.26007080078125	3.68011474609375E-06	4.63720471088891E-06	342399.875	7.37039881641977E-05
2	484	113.148515714327	1.27029418945313	1.2701416015625	3.65814208984375E-06	4.6463583203149E-06	347209.46875	7.40735049475916E-05
2	485	113.249223714073	1.28036499023438	1.280517578125	3.6395263671875E-06	4.66047731606523E-06	351836.34375	7.44409699109383E-05
2	486	113.349931713819	1.29043579101563	1.29058837890625	3.62274169921875E-06	4.6754680624872E-06	356246.3125	7.48066522646695E-05
2	487	113.450639713565	1.30050659179688	1.30096435546875	3.60870361328125E-06	4.69479482489987E-06	360507.40625	7.5170784839429E-05
2	488	113.55134771331	1.31057739257813	1.31072998046875	3.59588623046875E-06	4.71323573947302E-06	364508.21875	7.55335640860721E-05
2	489	113.652055713056	1.32064819335938	1.32049560546875	3.58551025390625E-06	4.73465024697362E-06	368286.6875	7.58951791794971E-05
2	490	113.752763712802	1.33071899414063	1.33026123046875	3.577880859375E-06	4.75951628686744E-06	371801.4375	7.62558847782202E-05
2	491	113.853471712548	1.34078979492188	1.34033203125	3.57147216796875E-06	4.78695847050403E-06	375288.40625	7.66158773330972E-05
2	492	113.954179712293	1.35086059570313	1.35101318359375	3.5675048828125E-06	4.8197462092503E-06	378699.75	7.69753532949835E-05
2	493	114.054887712039	1.36093139648438	1.361083984375	3.56536865234375E-06	4.85276632389287E-06	381751.28125	7.73345236666501E-05
2	494	114.155595711785	1.37100219726563	1.370849609375	3.5650634765625E-06	4.88716568725067E-06	384523.1875	7.76935703470372E-05
2	495	114.256303711531	1.38107299804688	1.3812255859375	3.56719970703125E-06	4.92710751132108E-06	387201.65625	7.80527116148733E-05
2	496	114.357011711276	1.39114379882813	1.3909912109375	3.570556640625E-06	4.96661277793464E-06	389572.65625	7.84121220931411E-05
2	497	114.457719711022	1.40121459960938	1.4007568359375	3.57574462890625E-06	5.00874875797308E-06	391738.5	7.87719691288657E-05
2	498	114.558427710768	1.41128540039063	1.41143798828125	3.58245849609375E-06	5.0564181037771E-06	393985.875	7.91324127931148E-05
2	499	114.659135710514	1.42135620117188	1.4215087890625	3.5906982421875E-06	5.10420886712382E-06	395886.46875	7.94936131569557E-05
2	500	114.759843710259	1.43142700195313	1.4312744140625	3.60076904296875E-06	5.15368856213172E-06	397491.34375	7.9855730291456E-05
2	501	114.860551710005	1.44149780273438	1.4410400390625	3.612060546875E-06	5.20512367074843E-06	398952.34375	8.02189242676832E-05
2	502	114.961259709751	1.45156860351563	1.451416015625	3.62518310546875E-06	5.26164876646362E-06	400370.40625	8.05833478807472E-05
2	503	115.061967709496	1.46163940429688	1.46240234375	3.63922119140625E-06	5.32200556335738E-06	401844.875	8.09491393738426E-05
2	504	115.162675709242	1.47171020507813	1.4715576171875	3.65631103515625E-06	5.38047243026085E-06	402470.59375	8.13164951978251E-05
2	505	115.263383708988	1.48178100585938	1.48162841796875	3.67584228515625E-06	5.44623208043049E-06	403071.8125	8.16856991150416E-05
2	506	115.364091708734	1.49185180664063	1.49169921875	3.699951171875E-06	5.51921402802691E-06	403167.28125	8.20571003714576E-05
2	507	115.464799708479	1.50192260742188	1.50146484375	3.731689453125E-06	5.60300031793304E-06	402355.28125	8.24313174234703E-05
2	508	115.565507708225	1.49185180664063	1.49169921875	3.5260009765625E-06	5.25973291587434E-06	423056.96875	8.27967669465579E-05
2	509	115.666215707971	1.48178100585938	1.48162841796875	3.3831787109375E-06	5.01261365570826E-06	437939.75	8.31446741358377E-05
2	510	115.766923707717	1.47171020507813	1.47186279296875	3.2733154296875E-06	4.81787083117524E-06	449655.0625	8.34798556752503E-05
2	511	115.867631707462	1.46163940429688	1.46148681640625	3.18359375E-06	4.65278026240412E-06	459068.25	8.38049891171977E-05
2	512	115.968339707208	1.45156860351563	1.45172119140625	3.1085205078125E-06	4.51270489065791E-06	467013.5625	8.41218206915073E-05
2	513	116.069047706954	1.44149780273438	1.441650390625	3.04412841796875E-06	4.38856886830763E-06	473583.96875	8.44316309667192E-05
2	514	116.1697557067	1.43142700195313	1.4312744140625	2.9876708984375E-06	4.27617669629399E-06	479060.28125	8.47353585413657E-05
2	515	116.270463706445	1.42135620117188	1.4215087890625	2.93731689453125E-06	4.17542150898953E-06	483948.0625	8.50337019073777E-05
2	516	116.371171706191	1.41128540039063	1.41143798828125	2.891845703125E-06	4.08166079068906E-06	488075.125	8.53272213134915E-05
2	517	116.471879705937	1.40121459960938	1.40106201171875	2.85064697265625E-06	3.99393320549279E-06	491489.125	8.56163824209943E-05
2	518	116.572587705683	1.39114379882813	1.39129638671875	2.813720703125E-06	3.91471940019983E-06	494468.5625	8.59016072354279E-05
2	519	116.673295705428	1.38107299804688	1.38092041015625	2.77862548828125E-06	3.83706083084689E-06	496979.6875	8.61832013470121E-05
2	520	116.774003705174	1.37100219726563	1.370849609375	2.7459716796875E-06	3.76431421500456E-06	499222.0625	8.64613903104328E-05
2	521	116.87471170492	1.36093139648438	1.3604736328125	2.7154541015625E-06	3.69430358659883E-06	501011.46875	8.67363924044184E-05
2	522	116.975419704665	1.35086059570313	1.3507080078125	2.68707275390625E-06	3.62945070264686E-06	502668.9375	8.70084331836551E-05
2	523	117.076127704411	1.34078979492188	1.3409423828125	2.65960693359375E-06	3.56637974618934E-06	504188.1875	8.72776581672952E-05
2	524	117.176835704157	1.33071899414063	1.33087158203125	2.6336669921875E-06	3.50507252733223E-06	505330.25	8.75441983225755E-05
2	525	117.277543703903	1.32064819335938	1.32110595703125	2.60894775390625E-06	3.44669615515159E-06	506375.03125	8.78081846167333E-05
2	526	117.378251703648	1.31057739257813	1.31134033203125	2.58575439453125E-06	3.39080406774883E-06	507140.34375	8.80697552929632E-05
2	527	117.478959703394	1.30050659179688	1.3006591796875	2.56317138671875E-06	3.33381240125163E-06	507441.375	8.8329026766587E-05
2	528	117.57966770314	1.29043579101563	1.2908935546875	2.5421142578125E-06	3.2815987651702E-06	507803.15625	8.85860936250538E-05
2	529	117.680375702886	1.28036499023438	1.27960205078125	2.52105712890625E-06	3.2259497402265E-06	507565.6875	8.88410504558124E-05
2	530	117.781083702631	1.27029418945313	1.27044677734375	2.50152587890625E-06	3.17805552185746E-06	507868.75	8.90939554665238E-05
2	531	117.881791702377	1.26022338867188	1.2603759765625	2.481689453125E-06	3.12786164613499E-06	507870.1875	8.93448814167641E-05
2	532	117.982499702123	1.25015258789063	1.25030517578125	2.46337890625E-06	3.07997538584459E-06	507557	8.95938865141943E-05
2	533	118.083207701869	1.24008178710938	1.240234375	2.445068359375E-06	3.03245769828209E-06	507239.15625	8.98410435183905E-05
2	534	118.183915701614	1.23001098632813	1.2298583984375	2.42767333984375E-06	2.9856944365747E-06	506599.625	9.0086403361056E-05
2	535	118.28462370136	1.21994018554688	1.21978759765625	2.4102783203125E-06	2.94002757073031E-06	506077.5	9.03300169738941E-05
2	536	118.385331701106	1.20986938476563	1.209716796875	2.392578125E-06	2.89434206024453E-06	505612.25	9.05718552530743E-05
2	537	118.486039700852	1.19979858398438	1.19964599609375	2.3748779296875E-06	2.84901261693449E-06	505140.09375	9.08119181985967E-05
2	538	118.586747700597	1.18972778320313	1.18927001953125	2.35626220703125E-06	2.80223207482777E-06	504727.34375	9.10501476028003E-05
2	539	118.687455700343	1.17965698242188	1.17919921875	2.33673095703125E-06	2.75547131423082E-06	504636.3125	9.12864634301513E-05
2	540	118.788163700089	1.16958618164063	1.16943359375	2.3150634765625E-06	2.70731311502459E-06	505141.03125	9.15206983336248E-05
2	541	118.888871699834	1.15951538085938	1.15936279296875	2.29095458984375E-06	2.65604762716976E-06	506061	9.17526267585345E-05
2	542	118.98957969958	1.14944458007813	1.14959716796875	2.261962890625E-06	2.60034607890702E-06	508229.90625	9.19818849069998E-05
2	543	119.090287699326	1.13937377929688	1.13922119140625	2.2271728515625E-06	2.53724260801391E-06	511510	9.22079343581572E-05
2	544	119.190995699072	1.12930297851563	1.12945556640625	2.18231201171875E-06	2.46482431975892E-06	517550.03125	9.24299674807116E-05
2	545	119.291703698817	1.11923217773438	1.11968994140625	2.12615966796875E-06	2.38063967117341E-06	526625.5	9.26469147088937E-05
2	546	119.392411698563	1.10916137695313	1.10931396484375	2.0526123046875E-06	2.27699138122262E-06	540440.125	9.28573354030959E-05
2	547	119.493119698309	1.09909057617188	1.09893798828125	1.95831298828125E-06	2.15206432585546E-06	561165.6875	9.30593014345504E-05
2	548	119.593827698055	1.08901977539063	1.08917236328125	1.83746337890625E-06	2.00131421479455E-06	592758.6875	9.32504335651174E-05
2	549	119.6945356978	1.07894897460938	1.0791015625	1.688232421875E-06	1.82177416263585E-06	639190.1875	9.34279669309035E-05
2	550	119.795243697546	1.06887817382813	1.06964111328125	1.513671875E-06	1.61908553764079E-06	706653.25	9.35891948756762E-05
2	551	119.895951697292	1.05880737304688	1.0589599609375	1.3201904296875E-06	1.39802887133555E-06	802126.6875	9.37318909564056E-05
2	552	119.996659697038	1.04873657226563	1.0479736328125	1.12213134765625E-06	1.17596403015341E-06	933913.5625	9.38548691920005E-05
2	553	120.097367696783	1.03866577148438	1.0382080078125	9.39331054687501E-07	9.75220928012277E-07	1105263.25	9.3958675279282E-05
2	554	120.198075696529	1.02859497070313	1.0284423828125	7.88269042968751E-07	8.10689243735396E-07	1304684.5	9.40456666285172E-05
2	555	120.298783696275	1.01852416992188	1.0186767578125	6.8084716796875E-07	6.93563208642445E-07	1496190	9.41196412895806E-05
2	556	120.399491696021	1.00845336914063	1.00830078125	6.21948242187501E-07	6.27110864570568E-07	1621197.25	9.41852413234301E-05
2	557	120.500199695766	0.998382568359375	0.99822998046875	6.06384277343749E-07	6.05310958690097E-07	1646200.25	9.42470942391083E-05
2	558	120.600907695512	0.988311767578125	0.98876953125	6.21948242187501E-07	6.14963482803432E-07	1589794	9.43089471547864E-05
2	559	120.701615695258	0.978240966796875	0.97869873046875	6.53991699218751E-07	6.400608185686E-07	1496500.375	9.43731938605197E-05
2	560	120.802323695003	0.968170166015625	0.96832275390625	6.88781738281249E-07	6.66962989726017E-07	1405848.5	9.44408093346283E-05
2	561	120.903031694749	0.958099365234375	0.958251953125	7.159423828125E-07	6.86053169829393E-07	1338448.5	9.45115389185958E-05
2	562	121.003739694495	0.948028564453125	0.948486328125	7.28454589843749E-07	6.90929198299273E-07	1302052.875	9.45842766668648E-05
2	563	121.104447694241	0.937957763671875	0.9381103515625	7.232666015625E-07	6.78503852213908E-07	1297046.5	9.46573709370568E-05
2	564	121.205155693986	0.927886962890625	0.92803955078125	6.95190429687501E-07	6.45164220713923E-07	1334943	9.47287990129553E-05
2	565	121.305863693732	0.917816162109375	0.91796875	6.439208984375E-07	5.91099251323612E-07	1425592.5	9.47962253121659E-05
2	566	121.406571693478	0.907745361328125	0.9075927734375	5.6915283203125E-07	5.16558998242544E-07	1594638.125	9.48573142522946E-05
2	567	121.507279693224	0.897674560546875	0.8978271484375	4.7607421875E-07	4.27432354399571E-07	1885897.5	9.4909941253718E-05
2	568	121.607987692969	0.887603759765625	0.88775634765625	3.72924804687499E-07	3.3106636010416E-07	2380523.75	9.49526947806589E-05
2	569	121.708695692715	0.877532958984375	0.87738037109375	2.7130126953125E-07	2.38034417066046E-07	3233970.75	9.4985130999703E-05
2	570	121.809403692461	0.867462158203125	0.8673095703125	1.8463134765625E-07	1.60132529458679E-07	4697520.5	9.50080939219333E-05
2	571	121.910111692207	0.857391357421875	0.85723876953125	1.20849609375E-07	1.03596967448993E-07	7093434.5	9.50234752963297E-05
2	572	122.010819691952	0.847320556640625	0.84716796875	8.42285156249997E-08	7.13556929099468E-08	10057972	9.50337998801842E-05
2	573	122.111527691698	0.837249755859375	0.83740234375	7.171630859375E-08	6.00554059815295E-08	11676596	9.50416506384499E-05
2	574	122.212235691444	0.827178955078125	0.82763671875	7.50732421874997E-08	6.21333668959778E-08	11024391	9.50490430113859E-05
2	575	122.31294369119	0.817108154296875	0.8172607421875	8.392333984375E-08	6.85872478811689E-08	9738182	9.50570465647615E-05
2	576	122.413651690935	0.807037353515625	0.8074951171875	8.66699218750003E-08	6.99855391417259E-08	9316902	9.50656394707039E-05
2	577	122.514359690681	0.796966552734375	0.79742431640625	7.23266601562494E-08	5.7675034526028E-08	11025317	9.50736430240795E-05
2	578	122.615067690427	0.786895751953125	0.78704833984375	2.99072265625006E-08	2.35384334246191E-08	26316326	9.50787944020703E-05
2	579	122.715775690172	0.776824951171875	0.7769775390625	-5.21850585937497E-08	-4.05466167308077E-08	-14888889	9.50776739045978E-05
2	580	122.816483689918	0.766754150390625	0.7666015625	-1.83715820312499E-07	-1.40836831974411E-07	-4172757.75	9.50657922658138E-05
2	581	122.917191689664	0.756683349609375	0.7568359375	-3.7384033203125E-07	-2.82935786799499E-07	-2024489.875	9.50377143453807E-05
2	582	123.01789968941	0.746612548828125	0.746551513671875	-6.25000000000001E-07	-4.66594684667143E-07	-1194482.5	9.49874229263514E-05
2	583	123.118607689155	0.736541748046875	0.73651123046875	-9.3353271484375E-07	-6.87557303535868E-07	-788950.625	9.49089444475248E-05
2	584	123.219315688901	0.726470947265625	0.726409912109375	-1.27899169921875E-06	-9.29072257349617E-07	-567955.125	9.47975349845365E-05
2	585	123.320023688647	0.716400146484375	0.71630859375	-1.6351318359375E-06	-1.17125887300062E-06	-438073.9375	9.46507934713736E-05
2	586	123.420731688393	0.706329345703125	0.706298828125	-1.9659423828125E-06	-1.38854284159606E-06	-359267.3125	9.44694693316706E-05
2	587	123.521439688138	0.696258544921875	0.69622802734375	-2.237548828125E-06	-1.55784425714955E-06	-311156.5625	9.42578044487163E-05
2	588	123.622147687884	0.686187744140625	0.68609619140625	-2.423095703125E-06	-1.66247662036767E-06	-283148.625	9.40231257118285E-05
2	589	123.72285568763	0.676116943359375	0.67608642578125	-2.5152587890625E-06	-1.70053226611344E-06	-268794	9.37744553084485E-05
2	590	123.823563687376	0.666046142578125	0.666015625	-2.52044677734375E-06	-1.67865687217272E-06	-264245.0625	9.35208881855942E-05
2	591	123.924271687121	0.655975341796875	0.655914306640625	-2.45849609375E-06	-1.61256275532651E-06	-266794.9375	9.32701805140823E-05
2	592	124.024979686867	0.645904541015625	0.64581298828125	-2.35260009765625E-06	-1.51933954839478E-06	-274510.34375	9.30279202293605E-05
2	593	124.125687686613	0.635833740234375	0.63580322265625	-2.22259521484375E-06	-1.41313319090841E-06	-286063.4375	9.27975415834226E-05
2	594	124.226395686359	0.625762939453125	0.625732421875	-2.08404541015625E-06	-1.30405464915384E-06	-300248.96875	9.25806889426894E-05
2	595	124.327103686104	0.615692138671875	0.6156005859375	-1.94610595703125E-06	-1.19802393783175E-06	-316324.3125	9.23777552088723E-05
2	596	124.42781168585	0.605621337890625	0.6055908203125	-1.81549072265625E-06	-1.09944448922761E-06	-333568.6875	9.21883402043022E-05
2	597	124.528519685596	0.595550537109375	0.59552001953125	-1.6937255859375E-06	-1.0086474730997E-06	-351603.625	9.20116362976842E-05
2	598	124.629227685341	0.585479736328125	0.58544921875	-1.58233642578125E-06	-9.2637759507852E-07	-369990.375	9.18466757866554E-05
2	599	124.729935685087	0.575408935546875	0.575408935546875	-1.4813232421875E-06	-8.52366611070465E-07	-388442.53125	9.16924036573619E-05
2	600	124.830643684833	0.565338134765625	0.5653076171875	-1.39007568359375E-06	-7.85820361670631E-07	-406674	9.15478231036104E-05
2	601	124.931351684579	0.555267333984375	0.55523681640625	-1.30706787109375E-06	-7.25732149930991E-07	-424795.71875	9.14120100787841E-05
2	602	125.032059684324	0.545196533203125	0.545196533203125	-1.231689453125E-06	-6.71512793815054E-07	-442641.21875	9.12841715035029E-05
2	603	125.13276768407	0.535125732421875	0.53509521484375	-1.16302490234375E-06	-6.2232902564574E-07	-460089.21875	9.1163587057963E-05
2	604	125.233475683816	0.525054931640625	0.525115966796875	-1.10076904296875E-06	-5.78031404074864E-07	-477044.625	9.10495946300216E-05
2	605	125.334183683562	0.514984130859375	0.5150146484375	-1.04339599609375E-06	-5.3736420113637E-07	-493594.625	9.09416266949847E-05
2	606	125.434891683307	0.504913330078125	0.504852294921875	-9.91210937500001E-07	-5.00415069382143E-07	-509328.84375	9.0839181211777E-05
2	607	125.535599683053	0.494842529296875	0.49481201171875	-9.42382812500001E-07	-4.66302310542233E-07	-525064.8125	9.0741814346984E-05
2	608	125.636307682799	0.484771728515625	0.484710693359375	-8.9752197265625E-07	-4.35038487012207E-07	-540054.4375	9.06491695786826E-05
2	609	125.737015682545	0.474700927734375	0.4747314453125	-8.5601806640625E-07	-4.06378688921905E-07	-554581.125	9.05608685570769E-05
2	610	125.83772368229	0.464630126953125	0.464599609375	-8.160400390625E-07	-3.79131876115935E-07	-569334.3125	9.04766784515232E-05
2	611	125.938431682036	0.454559326171875	0.454559326171875	-7.80029296875E-07	-3.54569579030795E-07	-582746.5	9.03963082237169E-05
2	612	126.039139681782	0.444488525390625	0.444488525390625	-7.4615478515625E-07	-3.31657219021508E-07	-595705.5625	9.03194595593959E-05
2	613	126.139847681527	0.434417724609375	0.4344482421875	-7.12890625E-07	-3.09714067725508E-07	-609417.8125	9.02459869394079E-05
2	614	126.240555681273	0.424346923828125	0.424346923828125	-6.8206787109375E-07	-2.8943341590093E-07	-622147.625	9.01757448446006E-05
2	615	126.341263681019	0.414276123046875	0.414306640625	-6.5185546875E-07	-2.7006802838514E-07	-635580.5625	9.0108580479864E-05
2	616	126.441971680765	0.404205322265625	0.404205322265625	-6.2286376953125E-07	-2.51764845415892E-07	-648946.625	9.00443919817917E-05
2	617	126.54267968051	0.394134521484375	0.3941650390625	-5.9478759765625E-07	-2.34444470947892E-07	-662698.8125	8.9983077486977E-05
2	618	126.643387680256	0.384063720703125	0.38409423828125	-5.6915283203125E-07	-2.18608306568058E-07	-674852.5625	8.99244696483947E-05
2	619	126.744095680002	0.373992919921875	0.373992919921875	-5.43823242187499E-07	-2.03386022690211E-07	-687710.5	8.98684302228503E-05
2	620	126.844803679748	0.363922119140625	0.36395263671875	-5.19714355468751E-07	-1.8915139321507E-07	-700293.625	8.98148718988523E-05
2	621	126.945511679493	0.353851318359375	0.353851318359375	-4.962158203125E-07	-1.7558662079864E-07	-713099.625	8.9763714640867E-05
2	622	127.046219679239	0.343780517578125	0.343780517578125	-4.73937988281251E-07	-1.62930646752102E-07	-725370.25	8.97148638614453E-05
2	623	127.146927678985	0.333709716796875	0.33380126953125	-4.52880859375E-07	-1.51172201867666E-07	-737062	8.9668195869308E-05
2	624	127.247635678731	0.323638916015625	0.32366943359375	-4.33349609375E-07	-1.40262017112036E-07	-746901.375	8.96235724212602E-05
2	625	127.348343678476	0.313568115234375	0.313629150390625	-4.14428710937501E-07	-1.29976925222763E-07	-756774.6875	8.95808843779378E-05
2	626	127.449051678222	0.303497314453125	0.303436279296875	-3.97338867187499E-07	-1.20567023031981E-07	-763671.3125	8.95400080480613E-05
2	627	127.549759677968	0.293426513671875	0.293426513671875	-3.802490234375E-07	-1.11575147343501E-07	-771669.375	8.95008488441817E-05
2	628	127.650467677714	0.283355712890625	0.283355712890625	-3.65295410156249E-07	-1.03508533300101E-07	-775689.25	8.94633121788502E-05
2	629	127.751175677459	0.273284912109375	0.27325439453125	-3.5125732421875E-07	-9.59826067514769E-08	-777932.25	8.94272307050414E-05
2	630	127.851883677205	0.263214111328125	0.26324462890625	-3.37829589843749E-07	-8.89318272356832E-08	-779223.125	8.93925316631794E-05
2	631	127.952591676951	0.253143310546875	0.25311279296875	-3.265380859375E-07	-8.26509634066497E-08	-775140.25	8.93590768100694E-05
2	632	128.053299676696	0.243072509765625	0.243072509765625	-3.155517578125E-07	-7.67019514569256E-08	-770309.5	8.93267497303896E-05
2	633	128.154007676442	0.233001708984375	0.2330322265625	-3.06396484375E-07	-7.14002581503337E-08	-760557.75	8.92954267328605E-05
2	634	128.254715676188	0.222930908203125	0.22296142578125	-2.98461914062501E-07	-6.65454962245349E-08	-747034.75	8.92649695742875E-05
2	635	128.355423675934	0.212860107421875	0.21295166015625	-2.92053222656249E-07	-6.21932159106109E-08	-729153.625	8.9235240011476E-05
2	636	128.456131675679	0.202789306640625	0.20281982421875	-2.880859375E-07	-5.84295385408495E-08	-704025.4375	8.9206027041655E-05
2	637	128.556839675425	0.192718505859375	0.19268798828125	-2.8717041015625E-07	-5.53342864861861E-08	-670988.375	8.9177061454393E-05
2	638	128.657547675171	0.182647705078125	0.182708740234375	-2.8961181640625E-07	-5.2914611359256E-08	-630874.625	8.91480158315971E-05
2	639	128.758255674917	0.172576904296875	0.172607421875	-2.96936035156251E-07	-5.12533624430489E-08	-581294.9375	8.91184827196412E-05
2	640	128.858963674662	0.162506103515625	0.162567138671875	-3.1158447265625E-07	-5.06533943678278E-08	-521743.375	8.90878363861702E-05
2	641	128.959671674408	0.152435302734375	0.152496337890625	-3.3538818359375E-07	-5.11454665286237E-08	-454686.09375	8.90552619239315E-05
2	642	129.060379674154	0.142364501953125	0.142425537109375	-3.73229980468751E-07	-5.31574784190525E-08	-381602.625	8.90195806277916E-05
2	643	129.1610876739	0.132293701171875	0.13238525390625	-4.2755126953125E-07	-5.66014826119954E-08	-309635.96875	8.89792572706938E-05
2	644	129.261795673645	0.122222900390625	0.122283935546875	-5.0689697265625E-07	-6.1985360844119E-08	-241240.21875	8.89322036528029E-05
2	645	129.362503673391	0.112152099609375	0.1121826171875	-6.170654296875E-07	-6.9224014964675E-08	-181800.1875	8.88756039785221E-05
2	646	129.463211673137	0.102081298828125	0.10211181640625	-7.6507568359375E-07	-7.81232643021212E-08	-133466.296875	8.88060094439425E-05
2	647	129.563919672883	0.092010498046875	0.092041015625	-9.5672607421875E-07	-8.80580373063822E-08	-96204.15625	8.87193091330118E-05
2	648	129.664627672628	0.081939697265625	0.08197021484375	-1.18927001953125E-06	-9.74847154111558E-08	-68924.8203125	8.86112538864836E-05
2	649	129.765335672374	0.071868896484375	0.071929931640625	-1.45751953125E-06	-1.04839280368196E-07	-49350.921875	8.8477972894907E-05
2	650	129.86604367212	0.061798095703125	0.061798095703125	-1.73797607421875E-06	-1.07403607785272E-07	-35557.5078125	8.83170723682269E-05
2	651	129.966751671865	0.051727294921875	0.051849365234375	-2.008056640625E-06	-1.04116459453962E-07	-25820.669921875	8.81284431670792E-05
2	652	130.067459671611	0.041656494140625	0.0417724609375	-2.2357177734375E-06	-9.33914421352711E-08	-18684.138671875	8.79147482919507E-05
2	653	130.168167671357	0.031585693359375	0.03165283203125	-2.40203857421875E-06	-7.60313199066331E-08	-13177.4873046875	8.76812191563658E-05
2	654	130.268875671103	0.021514892578125	0.0216217041015625	-2.49420166015625E-06	-5.39288897982715E-08	-8668.787109375	8.74346733326092E-05
2	655	130.369583670848	0.011444091796875	0.011566162109375	-2.5189208984375E-06	-2.91342470148948E-08	-4591.71337890625	8.71822412591428E-05
2	656	130.470291670594	0.001373291015625	0.00145874023437501	-2.489013671875E-06	-3.63082430787642E-09	-586.071594238281	8.6930078396108E-05
2	657	130.57099967034	-0.008697509765625	-0.00860595703125	-2.42340087890625E-06	2.08556834024876E-08	3551.18994140625	8.66827176650986E-05
2	658	130.671707670086	-0.018768310546875	-0.0186370849609375	-2.33917236328125E-06	4.35953566579883E-08	7967.38427734375	8.64429021021351E-05
2	659	130.772415669831	-0.028839111328125	-0.02869873046875	-2.24700927734375E-06	6.44863149545927E-08	12771.96875	8.62119704834186E-05
2	660	130.873123669577	-0.038909912109375	-0.038763427734375	-2.15576171875E-06	8.35647071539825E-08	17981.314453125	8.59902720549144E-05
2	661	130.973831669323	-0.048980712890625	-0.04884033203125	-2.07000732421875E-06	1.01099843163865E-07	23594.28125	8.57774866744876E-05
2	662	131.074539669069	-0.059051513671875	-0.05902099609375	-1.9915771484375E-06	1.17544864508545E-07	29635.3046875	8.55729667819105E-05
2	663	131.175247668814	-0.069122314453125	-0.069091796875	-1.92138671875E-06	1.32752063564112E-07	35959.33984375	8.53759338497184E-05
2	664	131.27595566856	-0.079193115234375	-0.07916259765625	-1.85882568359375E-06	1.47149464169161E-07	42587.42578125	8.51855875225738E-05
2	665	131.376663668306	-0.089263916015625	-0.089141845703125	-1.80419921875E-06	1.60829642936733E-07	49407.984375	8.50011419970542E-05
2	666	131.477371668052	-0.099334716796875	-0.099273681640625	-1.7559814453125E-06	1.74322735801979E-07	56534.5859375	8.48218696773984E-05
2	667	131.578079667797	-0.109405517578125	-0.10931396484375	-1.7144775390625E-06	1.87416333119472E-07	63759.34375	8.46471157274209E-05
2	668	131.678787667543	-0.119476318359375	-0.119384765625	-1.67877197265625E-06	2.00419790985507E-07	71114.34375	8.4476254414767E-05
2	669	131.779495667289	-0.129547119140625	-0.12939453125	-1.64703369140625E-06	2.13117147040975E-07	78562.1640625	8.4308790974319E-05
2	670	131.880203667034	-0.139617919921875	-0.139495849609375	-1.6204833984375E-06	2.26050701712666E-07	86082.8671875	8.41442524688318E-05
2	671	131.98091166678	-0.149688720703125	-0.149566650390625	-1.597900390625E-06	2.38992612366928E-07	93601.9921875	8.39821950648911E-05
2	672	132.081619666526	-0.159759521484375	-0.15960693359375	-1.57867431640625E-06	2.51967350095583E-07	101101.875	8.38222404127009E-05
2	673	132.182327666272	-0.169830322265625	-0.169708251953125	-1.56341552734375E-06	2.65324501924624E-07	108549.6796875	8.36640247143805E-05
2	674	132.283035666017	-0.179901123046875	-0.17974853515625	-1.5509033203125E-06	2.78772603223842E-07	115899.25	8.3507205999922E-05
2	675	132.383743665763	-0.189971923828125	-0.1898193359375	-1.5411376953125E-06	2.92537720270047E-07	123168.3203125	8.33515150588937E-05
2	676	132.484451665509	-0.200042724609375	-0.199920654296875	-1.5350341796875E-06	3.06885027612225E-07	130238.5703125	8.31966171972454E-05
2	677	132.585159665255	-0.189971923828125	-0.18988037109375	-1.3665771484375E-06	2.59486171216849E-07	138945.96875	8.30505086923949E-05
