Potential - Start -0.2 V, Upper Vertex 1.5 V, Lower Vertex -0.2 V, Stop -0.19 V; Scan - # end cross 5, Rate 0.1 Vps, Step 0.01 V 
Scan	Index	Time (s)	Potential applied (V)	WE(1).Potential (V)	WE(1).Current (A)	WE(1).Power (W)	WE(1).Resistance (Ω)	WE(1).Charge (C)
1	1	61.5214888446732	-0.189971923828125	-0.1898193359375	-2.69470214843751E-07	5.11506570433085E-08	704416.8125	0
1	2	61.6221968444189	-0.179901123046875	-0.17974853515625	-2.337646484375E-07	4.20188506211616E-08	768929.5625	-2.53398866334464E-08
1	3	61.7229048441646	-0.169830322265625	-0.169708251953125	-2.0477294921875E-07	3.47516575516238E-08	828763.0625	-4.74220094304201E-08
1	4	61.8236128439104	-0.159759521484375	-0.15966796875	-1.7974853515625E-07	2.87000823107064E-08	888285.25	-6.67842030566135E-08
1	5	61.9243208436561	-0.149688720703125	-0.1495361328125	-1.5716552734375E-07	2.35019257388558E-08	951456.3125	-8.37491711536131E-08
1	6	62.0250288434019	-0.139617919921875	-0.1395263671875	-1.361083984375E-07	1.89907094494401E-08	1025112.125	-9.85166863642917E-08
1	7	62.1257368431476	-0.129547119140625	-0.129486083984375	-1.141357421875E-07	1.47789895876826E-08	1134492	-1.11117479661971E-07
1	8	62.2264448428933	-0.119476318359375	-0.119354248046875	-9.18579101562497E-08	1.09636308920358E-08	1299335.625	-1.21490089100007E-07
1	9	62.3271528426391	-0.109405517578125	-0.109283447265625	-6.7138671875E-08	7.3371455577842E-09	1627727.25	-1.29496200429458E-07
1	10	62.4278608423848	-0.099334716796875	-0.09930419921875	-3.87573242187494E-08	3.84876486236863E-09	2562204.75	-1.34828482600824E-07
1	11	62.5285688421305	-0.089263916015625	-0.08917236328125	-3.0517578125E-09	2.72132455458873E-10	29220000	-1.36933735461753E-07
1	12	62.6292768418763	-0.079193115234375	-0.079193115234375	4.18090820312494E-08	-3.31099125894241E-09	-1894160.625	-1.34982158783714E-07
1	13	62.729984841622	-0.069122314453125	-0.069061279296875	1.00097656250001E-07	-6.91287205256685E-09	-689939.0625	-1.27836585761543E-07
1	14	62.8306928413677	-0.059051513671875	-0.058990478515625	1.77001953125E-07	-1.04414299428868E-08	-333275.875	-1.13883508845447E-07
1	15	62.9314008411135	-0.048980712890625	-0.0488555908203125	2.79846191406249E-07	-1.36720501586751E-08	-174580.171875	-9.08793822418374E-08
1	16	63.0321088408592	-0.038909912109375	-0.0387908935546875	4.14428710937501E-07	-1.60760595946385E-08	-93600.8828125	-5.59198625182944E-08
1	17	63.132816840605	-0.028839111328125	-0.028704833984375	5.859375E-07	-1.68192375582521E-08	-48989.5859375	-5.54742252134588E-09
1	18	63.2335248403507	-0.018768310546875	-0.0186309814453125	7.97424316406251E-07	-1.48567975699621E-08	-23363.94921875	6.41103738985294E-08
1	19	63.3342328400964	-0.008697509765625	-0.0085784912109375	1.04248046875E-06	-8.94290952402343E-09	-8228.9228515625	1.56756939873048E-07
1	20	63.4349408398422	0.001373291015625	0.00145263671875	1.30615234375E-06	1.89736470979085E-09	1112.14953613281	2.75019999662618E-07
1	21	63.5356488395879	0.011444091796875	0.0115264892578125	1.5692138671875E-06	1.80875279198744E-08	7345.39111328125	4.19806184481786E-07
1	22	63.6363568393336	0.021514892578125	0.02159423828125	1.80450439453125E-06	3.89668954881017E-08	11966.8525390625	5.89686408147827E-07
1	23	63.7370648390794	0.031585693359375	0.0316741943359375	1.98944091796875E-06	6.30139354029779E-08	15921.1552734375	7.80726679749932E-07
1	24	63.8377728388251	0.041656494140625	0.041766357421875	2.11029052734375E-06	8.81391457596692E-08	19791.755859375	9.87164526122797E-07
1	25	63.9384808385709	0.051727294921875	0.051788330078125	2.16522216796875E-06	1.12133243135304E-07	23918.251953125	1.20245374546357E-06
1	26	64.0391888383166	0.061798095703125	0.06182861328125	2.16400146484375E-06	1.33797215084996E-07	28571.4296875	1.42044746098691E-06
1	27	64.1398968380623	0.071868896484375	0.0718994140625	2.12188720703125E-06	1.525624355736E-07	33884.65625	1.63625907134701E-06
1	28	64.2406048378081	0.081939697265625	0.08197021484375	2.0562744140625E-06	1.68553242474445E-07	39863.46484375	1.84664622793207E-06
1	29	64.3413128375538	0.092010498046875	0.092041015625	1.978759765625E-06	1.82127052994474E-07	46514.5	2.04982643481344E-06
1	30	64.4420208372995	0.102081298828125	0.10211181640625	1.898193359375E-06	1.93827972339022E-07	53794.21484375	2.24504651669122E-06
1	31	64.5427288370453	0.112152099609375	0.112213134765625	1.820068359375E-06	2.0423556179594E-07	61653.25390625	2.43227577811922E-06
1	32	64.643436836791	0.122222900390625	0.122283935546875	1.74713134765625E-06	2.1364608926433E-07	69991.2734375	2.61189848060894E-06
1	33	64.7441448365367	0.132293701171875	0.132354736328125	1.68121337890625E-06	2.22516547410123E-07	78725.7265625	2.78452944257879E-06
1	34	64.8448528362825	0.142364501953125	0.142425537109375	1.62139892578125E-06	2.30928606015368E-07	87841.1484375	2.95082918455591E-06
1	35	64.9455608360282	0.152435302734375	0.152496337890625	1.5679931640625E-06	2.39113205680042E-07	97255.75	3.11142775899498E-06
1	36	65.046268835774	0.162506103515625	0.162506103515625	1.52069091796875E-06	2.47121533902828E-07	106863.34375	3.26695544572431E-06
1	37	65.1469768355197	0.172576904296875	0.172607421875	1.47857666015625E-06	2.55213308264501E-07	116738.90625	3.41798045155883E-06
1	38	65.2476848352654	0.182647705078125	0.182647705078125	1.44134521484375E-06	2.63258385757581E-07	126720.3125	3.56501027454215E-06
1	39	65.3483928350112	0.192718505859375	0.1927490234375	1.40716552734375E-06	2.71229794179817E-07	136976.796875	3.70844418284832E-06
1	40	65.4491008347569	0.202789306640625	0.20281982421875	1.3775634765625E-06	2.79397170288576E-07	147230.84375	3.84866643798887E-06
1	41	65.5498088345026	0.212860107421875	0.212921142578125	1.35009765625E-06	2.87464331449883E-07	157707.96875	3.98601514461916E-06
1	42	65.6505168342484	0.222930908203125	0.22296142578125	1.32537841796875E-06	2.95508272074585E-07	168224.734375	4.12073586630868E-06
1	43	65.7512248339941	0.233001708984375	0.233001708984375	1.3031005859375E-06	3.03624659636625E-07	178805.625	4.25309053753153E-06
1	44	65.8519328337399	0.243072509765625	0.24310302734375	1.28265380859375E-06	3.11817018427973E-07	189531.296875	4.38329334429E-06
1	45	65.9526408334856	0.253143310546875	0.253143310546875	1.26434326171875E-06	3.20060053127236E-07	200217.234375	4.5115448301658E-06
1	46	66.0533488332313	0.263214111328125	0.263214111328125	1.24786376953125E-06	3.28455371345626E-07	210931.765625	4.638044629246E-06
1	47	66.1540568329771	0.273284912109375	0.273284912109375	1.23291015625E-06	3.36935727318632E-07	221658.421875	4.76296145279775E-06
1	48	66.2547648327228	0.283355712890625	0.283355712890625	1.2188720703125E-06	3.45374360222195E-07	232473.71875	4.88641853735317E-06
1	49	66.3554728324685	0.293426513671875	0.29339599609375	1.20574951171875E-06	3.53762089844167E-07	243330.796875	5.00850774187711E-06
1	50	66.4561808322143	0.303497314453125	0.303497314453125	1.19415283203125E-06	3.62422156285902E-07	254152.828125	5.12935275764903E-06
1	51	66.55688883196	0.313568115234375	0.313629150390625	1.18377685546875E-06	3.71266906995515E-07	264939.4375	5.24909091836889E-06
1	52	66.6575968317057	0.323638916015625	0.32366943359375	1.17401123046875E-06	3.79991547561076E-07	275695.34375	5.36781499249628E-06
1	53	66.7583048314515	0.333709716796875	0.333740234375	1.165771484375E-06	3.89064837236219E-07	286282.71875	5.485632300406E-06
1	54	66.8590128311972	0.343780517578125	0.343780517578125	1.15814208984375E-06	3.98146653424192E-07	296837.96875	5.60265061722021E-06
1	55	66.959720830943	0.353851318359375	0.353851318359375	1.151123046875E-06	4.07326382401152E-07	307396.625	5.71893133383128E-06
1	56	67.0604288306887	0.363922119140625	0.363922119140625	1.14501953125E-06	4.16697929495058E-07	317830.5	5.83455130254151E-06
1	57	67.1611368304344	0.373992919921875	0.373992919921875	1.1395263671875E-06	4.26174807444113E-07	328200.3125	5.94958737565321E-06
1	58	67.2618448301802	0.384063720703125	0.384063720703125	1.1346435546875E-06	4.35775405094319E-07	338488.4375	6.06410094405874E-06
1	59	67.3625528299259	0.394134521484375	0.3941650390625	1.13067626953125E-06	4.45673038029781E-07	348610	6.1781688600604E-06
1	60	67.4632608296716	0.404205322265625	0.40423583984375	1.12701416015625E-06	4.55579510116877E-07	358678.59375	6.29185251455056E-06
1	61	67.5639688294174	0.414276123046875	0.41424560546875	1.12396240234375E-06	4.65596485810238E-07	368558.25	6.40519829175901E-06
1	62	67.6646768291631	0.424346923828125	0.42431640625	1.1212158203125E-06	4.75750226769378E-07	378443.125	6.51825212116819E-06
1	63	67.7653848289089	0.434417724609375	0.434478759765625	1.11968994140625E-06	4.86481496864144E-07	388034.875	6.63109040033305E-06
1	64	67.8660928286546	0.444488525390625	0.444549560546875	1.1175537109375E-06	4.96808013394912E-07	397788.125	6.7437445068208E-06
1	65	67.9668008284003	0.454559326171875	0.454620361328125	1.116943359375E-06	5.0778515969796E-07	407021.875	6.85626037011389E-06
1	66	68.0675088281461	0.464630126953125	0.464599609375	1.11602783203125E-06	5.18506055868784E-07	416297.53125	6.96869938110467E-06
1	67	68.1682168278918	0.474700927734375	0.47467041015625	1.11572265625E-06	5.29600526988361E-07	425437.65625	7.08107700120308E-06
1	68	68.2689248276375	0.484771728515625	0.484710693359375	1.116943359375E-06	5.41394342690182E-07	433961.78125	7.19350100553129E-06
1	69	68.3696328273833	0.494842529296875	0.49481201171875	1.116943359375E-06	5.52676965526189E-07	443005.5	7.30598594600451E-06
1	70	68.470340827129	0.504913330078125	0.5048828125	1.1187744140625E-06	5.64849983675231E-07	451282.03125	7.41856320018996E-06
1	71	68.5710488268747	0.514984130859375	0.5150146484375	1.12060546875E-06	5.77128218992584E-07	459586.0625	7.53132508179988E-06
1	72	68.6717568266205	0.525054931640625	0.5250244140625	1.123046875E-06	5.89627063618536E-07	467500	7.64430205890676E-06
1	73	68.7724648263662	0.535125732421875	0.535125732421875	1.12518310546875E-06	6.02114425873879E-07	475589.9375	7.75750959292054E-06
1	74	68.873172826112	0.545196533203125	0.545135498046875	1.12823486328125E-06	6.15040903539921E-07	483175.53125	7.87097815191373E-06
1	75	68.9738808258577	0.555267333984375	0.555328369140625	1.1322021484375E-06	6.2874391915102E-07	490485.1875	7.98479959485121E-06
1	76	69.0745888256034	0.565338134765625	0.5653076171875	1.1358642578125E-06	6.42112695459218E-07	497689.4375	8.09900575404754E-06
1	77	69.1752968253492	0.575408935546875	0.575408935546875	1.14013671875E-06	6.56044790048327E-07	504684.1875	8.21361209091265E-06
1	78	69.2760048250949	0.585479736328125	0.58551025390625	1.143798828125E-06	6.69705968903145E-07	511899.6875	8.32861678645713E-06
1	79	69.3767128248406	0.595550537109375	0.595550537109375	1.14898681640625E-06	6.84279712004354E-07	518326.6875	8.44406804390019E-06
1	80	69.4774208245864	0.605621337890625	0.60546875	1.153564453125E-06	6.98447195190965E-07	524867.75	8.5600104284822E-06
1	81	69.5781288243321	0.615692138671875	0.615631103515625	1.1590576171875E-06	7.13551855824335E-07	531148	8.6764603111078E-06
1	82	69.6788368240778	0.625762939453125	0.625701904296875	1.16424560546875E-06	7.28470638478029E-07	537431.25	8.79344770510215E-06
1	83	69.7795448238236	0.635833740234375	0.635772705078125	1.1700439453125E-06	7.43881969356153E-07	543375.0625	8.91098898136988E-06
1	84	69.8802528235693	0.645904541015625	0.6458740234375	1.175537109375E-06	7.59248905524146E-07	549428.875	9.02909869182622E-06
1	85	69.9809608233151	0.655975341796875	0.655975341796875	1.18133544921875E-06	7.74926888880145E-07	555282.875	9.14777592697646E-06
1	86	70.0816688230608	0.666046142578125	0.666015625	1.1871337890625E-06	7.90649608006788E-07	561028.3125	9.26703796721995E-06
1	87	70.1823768228065	0.676116943359375	0.676055908203125	1.192626953125E-06	8.06282457688212E-07	566862.875	9.38686844165204E-06
1	88	70.2830848225523	0.686187744140625	0.68609619140625	1.19781494140625E-06	8.21816229290562E-07	572789.875	9.50723733694758E-06
1	89	70.383792822298	0.696258544921875	0.696197509765625	1.20269775390625E-06	8.3731515587715E-07	578863.25	9.62811191129731E-06
1	90	70.4845008220437	0.706329345703125	0.706268310546875	1.20819091796875E-06	8.53306914905261E-07	584566.875	9.74951035459526E-06
1	91	70.5852088217895	0.716400146484375	0.71630859375	1.21307373046875E-06	8.68935103426338E-07	590490.5625	9.87143084785203E-06
1	92	70.6859168215352	0.726470947265625	0.726348876953125	1.2188720703125E-06	8.85326358002203E-07	595918.875	9.99388885247754E-06
1	93	70.786624821281	0.736541748046875	0.7364501953125	1.2255859375E-06	9.02582996786805E-07	600896.4375	1.01169771369314E-05
1	94	70.8873328210267	0.746612548828125	0.746551513671875	1.23382568359375E-06	9.21114406082779E-07	605070.5	1.02408184829983E-05
1	95	70.9880408207724	0.756683349609375	0.7568359375	1.24542236328125E-06	9.42580413720862E-07	607694.1875	1.03656584542478E-05
1	96	71.0887488205182	0.766754150390625	0.76690673828125	1.25885009765625E-06	9.65420554166485E-07	609212.125	1.04917580756592E-05
1	97	71.1894568202639	0.776824951171875	0.77728271484375	1.27777099609375E-06	9.93189246401016E-07	608311.5	1.06194875115762E-05
1	98	71.2901648200096	0.786895751953125	0.787353515625	1.3006591796875E-06	1.02407852864417E-06	605349.625	1.0749321518233E-05
1	99	71.3908728197554	0.796966552734375	0.79742431640625	1.32965087890625E-06	1.06029597191082E-06	599724.5625	1.08817685031681E-05
1	100	71.4915808195011	0.807037353515625	0.80780029296875	1.36566162109375E-06	1.10318183033087E-06	591508.4375	1.10174878500402E-05
1	101	71.5922888192468	0.817108154296875	0.8172607421875	1.40594482421875E-06	1.14902343284484E-06	581289.375	1.11570498120273E-05
1	102	71.6929968189926	0.827178955078125	0.8270263671875	1.4501953125E-06	1.19934975373326E-06	570286.1875	1.13008672997239E-05
1	103	71.7937048187383	0.837249755859375	0.83740234375	1.492919921875E-06	1.25017459140508E-06	560915.8125	1.14490649139043E-05
1	104	71.8944128184841	0.847320556640625	0.84747314453125	1.53106689453125E-06	1.2975380059288E-06	553518.0625	1.16013352453592E-05
1	105	71.9951208182298	0.857391357421875	0.8575439453125	1.561279296875E-06	1.3388655588642E-06	549257.25	1.17570471047657E-05
1	106	72.0958288179755	0.867462158203125	0.86700439453125	1.58294677734375E-06	1.37242182063346E-06	547715.4375	1.19153710329556E-05
1	107	72.1965368177213	0.877532958984375	0.877685546875	1.595458984375E-06	1.40031124828965E-06	550114.8125	1.2075416634616E-05
1	108	72.297244817467	0.887603759765625	0.887451171875	1.60003662109375E-06	1.41995440117171E-06	554644.3125	1.22363226182642E-05
1	109	72.3979528172127	0.897674560546875	0.89813232421875	1.60064697265625E-06	1.43759268667054E-06	561105.8125	1.23974896268919E-05
1	110	72.4986608169585	0.907745361328125	0.9075927734375	1.597900390625E-06	1.4502428484775E-06	567990.875	1.25585493151448E-05
1	111	72.5993688167042	0.917816162109375	0.91766357421875	1.59454345703125E-06	1.46325442074158E-06	575502.4375	1.27193015941884E-05
1	112	72.70007681645	0.927886962890625	0.927734375	1.59088134765625E-06	1.47591526911128E-06	583157.5	1.28797009892878E-05
1	113	72.8007848161957	0.937957763671875	0.93841552734375	1.58782958984375E-06	1.49004381455597E-06	591005.25	1.30397620523581E-05
1	114	72.9014928159414	0.948028564453125	0.94757080078125	1.5869140625E-06	1.50371340623678E-06	597115.4375	1.31996230265941E-05
1	115	73.0022008156872	0.958099365234375	0.958251953125	1.58843994140625E-06	1.52212567172683E-06	603266.125	1.33595149236498E-05
1	116	73.1029088154329	0.968170166015625	0.96832275390625	1.59210205078125E-06	1.54166855281801E-06	608204	1.3519667845685E-05
1	117	73.2036168151786	0.978240966796875	0.9783935546875	1.597900390625E-06	1.56337534917839E-06	612299.5	1.3680297342944E-05
1	118	73.3043248149244	0.988311767578125	0.98876953125	1.60552978515625E-06	1.58749890033505E-06	615852.5	1.38416025947663E-05
1	119	73.4050328146701	0.998382568359375	0.99822998046875	1.61346435546875E-06	1.61060847858607E-06	618687.375	1.40036918310216E-05
1	120	73.5057408144158	1.00845336914063	1.00830078125	1.62139892578125E-06	1.63485776738526E-06	621870.9375	1.4166579603625E-05
1	121	73.6064488141616	1.01852416992188	1.01898193359375	1.62841796875E-06	1.65932851814432E-06	625749.625	1.43302213473362E-05
1	122	73.7071568139073	1.02859497070313	1.02874755859375	1.63299560546875E-06	1.67994016919693E-06	629975.6875	1.44944460771512E-05
1	123	73.8078648136531	1.03866577148438	1.038818359375	1.63543701171875E-06	1.69892200574395E-06	635193.125	1.46590255098999E-05
1	124	73.9085728133988	1.04873657226563	1.048583984375	1.63604736328125E-06	1.71553301697713E-06	640925.25	1.48237577377586E-05
1	125	74.0092808131445	1.05880737304688	1.0589599609375	1.6357421875E-06	1.73218541021924E-06	647388.0625	1.49885054270271E-05
1	126	74.1099888128903	1.06887817382813	1.0687255859375	1.63482666015625E-06	1.74718104517524E-06	653724.125	1.5153191270656E-05
1	127	74.210696812636	1.07894897460938	1.0791015625	1.6326904296875E-06	1.76183880284952E-06	660934.5625	1.53177243191749E-05
1	128	74.3114048123817	1.08901977539063	1.08917236328125	1.632080078125E-06	1.77761648956221E-06	667352.3125	1.54821173055097E-05
1	129	74.4121128121275	1.09909057617188	1.0992431640625	1.632080078125E-06	1.79405287781265E-06	673522.8125	1.56464811880141E-05
1	130	74.5128208118732	1.10916137695313	1.109619140625	1.63238525390625E-06	1.81132588750188E-06	679753.25	1.58108596224338E-05
1	131	74.6135288116189	1.11923217773438	1.11968994140625	1.63299560546875E-06	1.82844871687848E-06	685666.25	1.59752853505779E-05
1	132	74.7142368113647	1.12930297851563	1.129150390625	1.63482666015625E-06	1.84596513008728E-06	690685.125	1.61398329510121E-05
1	133	74.8149448111104	1.13937377929688	1.13922119140625	1.63726806640625E-06	1.86521049272415E-06	695806.1875	1.63045970111853E-05
1	134	74.9156528108562	1.14944458007813	1.148681640625	1.64093017578125E-06	1.88490628261206E-06	700018.625	1.64696666615782E-05
1	135	75.0163608106019	1.15951538085938	1.15936279296875	1.644287109375E-06	1.90632522389933E-06	705085.375	1.66350910149049E-05
1	136	75.1170688103476	1.16958618164063	1.16943359375	1.64825439453125E-06	1.92752395378193E-06	709498.25	1.68008828040911E-05
1	137	75.2177768100934	1.17965698242188	1.18011474609375	1.65374755859375E-06	1.95161192095838E-06	713600.3125	1.69671529874904E-05
1	138	75.3184848098391	1.18972778320313	1.190185546875	1.65985107421875E-06	1.97553072212031E-06	717043.625	1.71340052474989E-05
1	139	75.4191928095848	1.19979858398438	1.199951171875	1.66595458984375E-06	1.99906412490236E-06	720278.4375	1.73014723259257E-05
1	140	75.5199008093306	1.20986938476563	1.21002197265625	1.67266845703125E-06	2.02396563508955E-06	723408.125	1.74695851455908E-05
1	141	75.6206088090763	1.21994018554688	1.2200927734375	1.6796875E-06	2.04937441594666E-06	726380.8125	1.76383910002187E-05
1	142	75.7213168088221	1.23001098632813	1.22955322265625	1.6876220703125E-06	2.07502102966828E-06	728571.4375	1.78079480974702E-05
1	143	75.8220248085678	1.24008178710938	1.23992919921875	1.69647216796875E-06	2.10350526685943E-06	730886.875	1.79783510247944E-05
1	144	75.9227328083135	1.25015258789063	1.2506103515625	1.705322265625E-06	2.13269368032343E-06	733357.1875	1.81496452569263E-05
1	145	76.0234408080593	1.26022338867188	1.2603759765625	1.7156982421875E-06	2.16242483475071E-06	734614.0625	1.83219071914209E-05
1	146	76.124148807805	1.27029418945313	1.2701416015625	1.7254638671875E-06	2.19158323488955E-06	736116.0625	1.84951823030133E-05
1	147	76.2248568075507	1.28036499023438	1.280517578125	1.73553466796875E-06	2.22238259084406E-06	737823.125	1.86694578587776E-05
1	148	76.3255648072965	1.29043579101563	1.290283203125	1.7462158203125E-06	2.25311282520124E-06	738902.5	1.88447775144596E-05
1	149	76.4262728070422	1.30050659179688	1.30035400390625	1.75811767578125E-06	2.28617523134744E-06	739628.5625	1.90212358575081E-05
1	150	76.5269808067879	1.31057739257813	1.3104248046875	1.7694091796875E-06	2.31867761613103E-06	740600.25	1.91988601727644E-05
1	151	76.6276888065337	1.32064819335938	1.32080078125	1.781005859375E-06	2.35235393120092E-06	741603.875	1.93776377273025E-05
1	152	76.7283968062794	1.33071899414063	1.33087158203125	1.79351806640625E-06	2.38694201470935E-06	742045.3125	1.95576303667622E-05
1	153	76.8291048060252	1.34078979492188	1.34063720703125	1.80633544921875E-06	2.42164037445036E-06	742186.1875	1.97388962988043E-05
1	154	76.9298128057709	1.35086059570313	1.3507080078125	1.8194580078125E-06	2.45755632022338E-06	742368.375	1.99214700842276E-05
1	155	77.0305208055166	1.36093139648438	1.361083984375	1.832275390625E-06	2.49388062911748E-06	742838.125	2.01053499040427E-05
1	156	77.1312288052624	1.37100219726563	1.37115478515625	1.846923828125E-06	2.53241842074203E-06	742399.25	2.02906121558044E-05
1	157	77.2319368050081	1.38107299804688	1.3812255859375	1.86279296875E-06	2.57293731920072E-06	741481	2.04774114536121E-05
1	158	77.3326448047538	1.39114379882813	1.3909912109375	1.8804931640625E-06	2.61574928117625E-06	739694.9375	2.06659005925758E-05
1	159	77.4333528044996	1.40121459960938	1.4013671875	1.90155029296875E-06	2.66477013610711E-06	736960.375	2.08563415071694E-05
1	160	77.5340608042453	1.41128540039063	1.4117431640625	1.92596435546875E-06	2.71896715275943E-06	733005.875	2.10490725294221E-05
1	161	77.6347688039911	1.42135620117188	1.4215087890625	1.95465087890625E-06	2.77855315289344E-06	727244.375	2.12444756471086E-05
1	162	77.7354768037368	1.43142700195313	1.43218994140625	1.98944091796875E-06	2.84925704363559E-06	719895.75	2.14430765481666E-05
1	163	77.8361848034825	1.44149780273438	1.4410400390625	2.02972412109375E-06	2.92491358777625E-06	709968.4375	2.16454573092051E-05
1	164	77.9368928032283	1.45156860351563	1.451416015625	2.07733154296875E-06	3.01507225231035E-06	698692.5	2.18522654904518E-05
1	165	78.037600802974	1.46163940429688	1.46209716796875	2.1331787109375E-06	3.1189144920063E-06	685407.75	2.20642814383609E-05
1	166	78.1383088027197	1.47171020507813	1.47125244140625	2.198486328125E-06	3.23452832162729E-06	669211.5625	2.22823964577401E-05
1	167	78.2390168024655	1.48178100585938	1.48162841796875	2.27294921875E-06	3.36766606778838E-06	651852.875	2.25075527851004E-05
1	168	78.3397248022112	1.49185180664063	1.49169921875	2.35443115234375E-06	3.51210292137694E-06	633571	2.27405598707264E-05
1	169	78.4404328019569	1.50192260742188	1.5020751953125	2.440185546875E-06	3.66534209206293E-06	615557.8125	2.29819870583015E-05
1	170	78.5411408017027	1.49185180664063	1.49169921875	2.1624755859375E-06	3.22576306643896E-06	689810.9375	2.32137499551754E-05
1	171	78.6418488014484	1.48178100585938	1.48193359375	1.96197509765625E-06	2.90751700049441E-06	755327.375	2.34214330703253E-05
1	172	78.7425568011942	1.47171020507813	1.47186279296875	1.8048095703125E-06	2.65643188868125E-06	815522.5625	2.36111045524012E-05
1	173	78.8432648009399	1.46163940429688	1.4617919921875	1.676025390625E-06	2.45000046561472E-06	872177.75	2.37863787333481E-05
1	174	78.9439728006856	1.45156860351563	1.451416015625	1.568603515625E-06	2.27669625019189E-06	925291.875	2.39497585425852E-05
1	175	79.0446808004314	1.44149780273438	1.441650390625	1.47796630859375E-06	2.13071075449989E-06	975428.4375	2.4103166651912E-05
1	176	79.1453888001771	1.43142700195313	1.43096923828125	1.40045166015625E-06	2.00400313588034E-06	1021791.25	2.4248105546576E-05
1	177	79.2460967999228	1.42135620117188	1.42120361328125	1.3348388671875E-06	1.89707782283222E-06	1064700.5	2.43858394242125E-05
1	178	79.3468047996686	1.41128540039063	1.4111328125	1.2774658203125E-06	1.80267386440391E-06	1104634.5	2.45173778239405E-05
1	179	79.4475127994143	1.40121459960938	1.4013671875	1.22772216796875E-06	1.72048953572812E-06	1141436.75	2.46435247390764E-05
1	180	79.54822079916	1.39114379882813	1.39129638671875	1.18438720703125E-06	1.64783364198229E-06	1174697.25	2.47649841185194E-05
1	181	79.6489287989058	1.38107299804688	1.3812255859375	1.1468505859375E-06	1.58405930505978E-06	1204364.125	2.48823707806878E-05
1	182	79.7496367986515	1.37100219726563	1.3714599609375	1.1138916015625E-06	1.52765767325036E-06	1231232.875	2.49962085945299E-05
1	183	79.8503447983973	1.36093139648438	1.36077880859375	1.083984375E-06	1.47506295888888E-06	1255349.125	2.51068813668098E-05
1	184	79.951052798143	1.35086059570313	1.351318359375	1.05804443359375E-06	1.4297547750175E-06	1277184.875	2.52147401624825E-05
1	185	80.0517607978887	1.34078979492188	1.3409423828125	1.03424072265625E-06	1.38685709316633E-06	1296547.75	2.53200960287359E-05
1	186	80.1524687976345	1.33071899414063	1.33087158203125	1.01287841796875E-06	1.34801109652471E-06	1313950	2.54231763392454E-05
1	187	80.2531767973802	1.32064819335938	1.32110595703125	9.9365234375E-07	1.31271997361182E-06	1329545.5	2.55242121056654E-05
1	188	80.3538847971259	1.31057739257813	1.31011962890625	9.7503662109375E-07	1.27741463984421E-06	1343662	2.56233433901798E-05
1	189	80.4545927968717	1.30050659179688	1.30035400390625	9.58251953125E-07	1.24606674489769E-06	1357006.375	2.57206920650788E-05
1	190	80.5553007966174	1.29043579101563	1.2908935546875	9.4268798828125E-07	1.21690982268774E-06	1369375.25	2.58164127444616E-05
1	191	80.6560087963632	1.28036499023438	1.280517578125	9.27734375E-07	1.1879801604664E-06	1380263.25	2.59105963777984E-05
1	192	80.7567167961089	1.27029418945313	1.27044677734375	9.136962890625E-07	1.16080252610118E-06	1390447.625	2.60033193626441E-05
1	193	80.8574247958546	1.26022338867188	1.26007080078125	8.9996337890625E-07	1.13401756607345E-06	1400135.625	2.60946435446385E-05
1	194	80.9581327956004	1.25015258789063	1.25030517578125	8.8714599609375E-07	1.10920325369079E-06	1409356.75	2.61846325884108E-05
1	195	81.0588407953461	1.24008178710938	1.23992919921875	8.75244140625001E-07	1.08524068309634E-06	1416666.75	2.62733756244415E-05
1	196	81.1595487950918	1.23001098632813	1.2298583984375	8.636474609375E-07	1.06216407402826E-06	1424028.375	2.636093631736E-05
1	197	81.2602567948376	1.21994018554688	1.21978759765625	8.514404296875E-07	1.03857644262462E-06	1432616.5	2.64472982962616E-05
1	198	81.3609647945833	1.20986938476563	1.209716796875	8.4075927734375E-07	1.01708053534821E-06	1438838.5	2.65325070358813E-05
1	199	81.461672794329	1.19979858398438	1.20025634765625	8.30078125E-07	9.96306539491343E-07	1445956	2.66166407527635E-05
1	200	81.5623807940748	1.18972778320313	1.18988037109375	8.2000732421875E-07	9.75710577222344E-07	1451060.75	2.66997285507387E-05
1	201	81.6630887938205	1.17965698242188	1.17950439453125	8.09631347656251E-07	9.54963752519689E-07	1456841.375	2.67817868007114E-05
1	202	81.7637967935663	1.16958618164063	1.1700439453125	7.99560546875E-07	9.35520972689119E-07	1463358.75	2.68628155026818E-05
1	203	81.864504793312	1.15951538085938	1.15966796875	7.891845703125E-07	9.15192003958509E-07	1469451	2.69428164756391E-05
1	204	81.9652127930577	1.14944458007813	1.14990234375	7.7972412109375E-07	8.96606536571198E-07	1474755.5	2.70218170044245E-05
1	205	82.0659207928035	1.13937377929688	1.1395263671875	7.6904296875E-07	8.76344756761682E-07	1481746	2.70998043561121E-05
1	206	82.1666287925492	1.12930297851563	1.12945556640625	7.5958251953125E-07	8.57914699281537E-07	1486942.5	2.71767767117126E-05
1	207	82.2673367922949	1.11923217773438	1.119384765625	7.4951171875E-07	8.38991979890125E-07	1493485.375	2.72527649940457E-05
1	208	82.3680447920407	1.10916137695313	1.10931396484375	7.4005126953125E-07	8.20949196622678E-07	1498969.125	2.73277710221009E-05
1	209	82.4687527917864	1.09909057617188	1.0992431640625	7.2906494140625E-07	8.01419673734927E-07	1507743.875	2.74017456831643E-05
1	210	82.5694607915322	1.08901977539063	1.08917236328125	7.18078613281251E-07	7.82111328589963E-07	1516787.125	2.74746162176598E-05
1	211	82.6701687912779	1.07894897460938	1.07940673828125	7.07092285156249E-07	7.63240166179457E-07	1526543	2.75463789876085E-05
1	212	82.7708767910236	1.06887817382813	1.0687255859375	6.9427490234375E-07	7.41989310881763E-07	1539340.75	2.76169430435402E-05
1	213	82.8715847907694	1.05880737304688	1.05865478515625	6.81152343749999E-07	7.2110515247914E-07	1554211.625	2.76862010650802E-05
1	214	82.9722927905151	1.04873657226563	1.048583984375	6.6558837890625E-07	6.97925258918985E-07	1575424.25	2.77540148090338E-05
1	215	83.0730007902608	1.03866577148438	1.03851318359375	6.49414062500001E-07	6.7442505269355E-07	1599154.125	2.78202314802911E-05
1	216	83.1737087900066	1.02859497070313	1.0284423828125	6.31103515625001E-07	6.49053561119217E-07	1629593.875	2.78847091976786E-05
1	217	83.2744167897523	1.01852416992188	1.01837158203125	6.1187744140625E-07	6.23118637577136E-07	1664339.125	2.79472988040652E-05
1	218	83.375124789498	1.00845336914063	1.00830078125	5.9234619140625E-07	5.97263124291203E-07	1702215.375	2.80079366348218E-05
1	219	83.4758327892438	0.998382568359375	0.99853515625	5.73120117187501E-07	5.72280555388716E-07	1742279.125	2.80666226899484E-05
1	220	83.5765407889895	0.988311767578125	0.98876953125	5.5511474609375E-07	5.48880564110732E-07	1781198.5	2.8123433367E-05
1	221	83.6772487887353	0.978240966796875	0.97869873046875	5.401611328125E-07	5.2865499355903E-07	1811864.375	2.81785851257155E-05
1	222	83.777956788481	0.968170166015625	0.9686279296875	5.27038574218749E-07	5.10504264639167E-07	1837869.25	2.82323235296644E-05
1	223	83.8786647882267	0.958099365234375	0.958251953125	5.157470703125E-07	4.94215612434346E-07	1857988.25	2.82848304777872E-05
1	224	83.9793727879725	0.948028564453125	0.9478759765625	5.0537109375E-07	4.79029097277817E-07	1875603.875	2.83362478512572E-05
1	225	84.0800807877182	0.937957763671875	0.9381103515625	4.94995117187499E-07	4.64360027763178E-07	1895191.125	2.83866211248096E-05
1	226	84.1807887874639	0.927886962890625	0.92803955078125	4.8370361328125E-07	4.48896088300899E-07	1918612	2.84359030047199E-05
1	227	84.2814967872097	0.917816162109375	0.91796875	4.7027587890625E-07	4.31698538250203E-07	1951979.25	2.84839388768887E-05
1	228	84.3822047869554	0.907745361328125	0.908203125	4.54101562500001E-07	4.12416454764752E-07	2000000	2.8530484996736E-05
1	229	84.4829127867011	0.897674560546875	0.89752197265625	4.33959960937499E-07	3.89488576502117E-07	2068213.875	2.85752030322328E-05
1	230	84.5836207864469	0.887603759765625	0.887451171875	4.08935546875E-07	3.62910327567079E-07	2170149.25	2.86176455119858E-05
1	231	84.6843287861926	0.877532958984375	0.877685546875	3.77197265625E-07	3.31060590497145E-07	2326860.75	2.86572303593857E-05
1	232	84.7850367859384	0.867462158203125	0.86761474609375	3.3905029296875E-07	2.94165005243485E-07	2558956	2.86932972812792E-05
1	233	84.8857447856841	0.857391357421875	0.858154296875	2.947998046875E-07	2.52983710424814E-07	2910973	2.87252132693538E-05
1	234	84.9864527854298	0.847320556640625	0.84747314453125	2.48107910156251E-07	2.10264786915104E-07	3415744.25	2.87525508610997E-05
1	235	85.0871607851756	0.837249755859375	0.83740234375	2.02026367187499E-07	1.69177340580973E-07	4145015.25	2.87752172880573E-05
1	236	85.1878687849213	0.827178955078125	0.82733154296875	1.605224609375E-07	1.32805297425875E-07	5153992.5	2.87934726657113E-05
1	237	85.288576784667	0.817108154296875	0.8172607421875	1.2786865234375E-07	1.04502021258668E-07	6391408.5	2.88079954771092E-05
1	238	85.3892847844128	0.807037353515625	0.80718994140625	1.0650634765625E-07	8.59708464417963E-08	7578797	2.88197970803594E-05
1	239	85.4899927841585	0.796966552734375	0.797119140625	9.70458984375006E-08	7.735714291357E-08	8213836.5	2.8830045266659E-05
1	240	85.5907007839043	0.786895751953125	0.78704833984375	9.79614257812497E-08	7.71003740851484E-08	8034268	2.88398659904487E-05
1	241	85.69140878365	0.776824951171875	0.77728271484375	1.05895996093749E-07	8.23111250269903E-08	7340058	2.8850130547653E-05
1	242	85.7921167833957	0.766754150390625	0.7666015625	1.190185546875E-07	9.12398050445518E-08	6441026	2.88614555756794E-05
1	243	85.8928247831415	0.756683349609375	0.75714111328125	1.33056640625E-07	1.00742646225171E-07	5690367.5	2.88741484837374E-05
1	244	85.9935327828872	0.746612548828125	0.74658203125	1.44348144531251E-07	1.07767725410213E-07	5172093.5	2.88881165033672E-05
1	245	86.0942407826329	0.736541748046875	0.7364501953125	1.55029296875001E-07	1.14171356813131E-07	4750393.5	2.89031922875438E-05
1	246	86.1949487823787	0.726470947265625	0.72637939453125	1.6357421875E-07	1.18816934957522E-07	4440672	2.89192357740831E-05
1	247	86.2956567821244	0.716400146484375	0.716339111328125	1.70288085937501E-07	1.21984001566489E-07	4206631	2.89360468741506E-05
1	248	86.3963647818701	0.706329345703125	0.706268310546875	1.7547607421875E-07	1.23933190820935E-07	4024869.5	2.8953456421732E-05
1	249	86.4970727816159	0.696258544921875	0.69622802734375	1.79138183593749E-07	1.24721026395491E-07	3886541.75	2.89713134407066E-05
1	250	86.5977807813616	0.686187744140625	0.686126708984375	1.81884765625E-07	1.24795988654114E-07	3772315.5	2.89894924208056E-05
1	251	86.6984887811074	0.676116943359375	0.676025390625	1.83715820312499E-07	1.24196560591372E-07	3679734.5	2.90079024125589E-05
1	252	86.7991967808531	0.666046142578125	0.666015625	1.849365234375E-07	1.23170622146063E-07	3601320	2.90264651994221E-05
1	253	86.8999047805988	0.655975341796875	0.6558837890625	1.8585205078125E-07	1.21897343774435E-07	3529064.25	2.90451353066601E-05
1	254	87.0006127803446	0.645904541015625	0.6458740234375	1.8646240234375E-07	1.20431224104323E-07	3463829.75	2.90638836304424E-05
1	255	87.1013207800903	0.635833740234375	0.6357421875	1.8646240234375E-07	1.18542011762202E-07	3409492.75	2.90826610580552E-05
1	256	87.202028779836	0.625762939453125	0.62567138671875	1.87072753906251E-07	1.17046063508042E-07	3344535.25	2.91014694084879E-05
1	257	87.3027367795818	0.615692138671875	0.615692138671875	1.87072753906251E-07	1.15179219051242E-07	3291191	2.91203105007298E-05
1	258	87.4034447793275	0.605621337890625	0.605560302734375	1.8798828125E-07	1.13838240167752E-07	3221266.25	2.91391952487174E-05
1	259	87.5041527790733	0.595550537109375	0.595550537109375	1.88598632812501E-07	1.12320016398826E-07	3157767	2.91581582132494E-05
1	260	87.604860778819	0.585479736328125	0.585418701171875	1.8890380859375E-07	1.10587812685026E-07	3099031	2.91771666525165E-05
1	261	87.7055687785647	0.575408935546875	0.575347900390625	1.89208984375E-07	1.08860987779735E-07	3040806.5	2.91962060146034E-05
1	262	87.8062767783105	0.565338134765625	0.5653076171875	1.8890380859375E-07	1.06788753839737E-07	2992568.75	2.92152453766903E-05
1	263	87.9069847780562	0.555267333984375	0.555206298828125	1.88598632812501E-07	1.04711148196657E-07	2943851	2.92342556349467E-05
1	264	88.0076927778019	0.545196533203125	0.545166015625	1.88598632812501E-07	1.02817566016711E-07	2890614.75	2.92532477033092E-05
1	265	88.1084007775477	0.535125732421875	0.535064697265625	1.8768310546875E-07	1.0042260356613E-07	2850894.5	2.92721961159259E-05
1	266	88.2091087772934	0.525054931640625	0.52508544921875	1.873779296875E-07	9.83894210548897E-08	2802280.25	2.92910808639135E-05
1	267	88.3098167770391	0.514984130859375	0.51495361328125	1.873779296875E-07	9.6490936130067E-08	2748208.5	2.93099510599859E-05
1	268	88.4105247767849	0.504913330078125	0.5048828125	1.8646240234375E-07	9.4141661577396E-08	2707692.25	2.93287757813232E-05
1	269	88.5112327765306	0.494842529296875	0.494842529296875	1.861572265625E-07	9.21185119295842E-08	2658196.75	2.93475386570208E-05
1	270	88.6119407762764	0.484771728515625	0.484710693359375	1.85546875000001E-07	8.99365488749027E-08	2612335.75	2.93662560579833E-05
1	271	88.7126487760221	0.474700927734375	0.474700927734375	1.8463134765625E-07	8.76446719644264E-08	2571074.5	2.93848952424014E-05
1	272	88.8133567757678	0.464630126953125	0.464599609375	1.84020996093751E-07	8.54960831020435E-08	2524709.75	2.9403459848254E-05
1	273	88.9140647755136	0.454559326171875	0.454620361328125	1.8280029296875E-07	8.31047373139882E-08	2486978.25	2.94219298666576E-05
1	274	89.0147727752593	0.444488525390625	0.44451904296875	1.8157958984375E-07	8.0715579997559E-08	2448067.25	2.94402780127712E-05
1	275	89.115480775005	0.434417724609375	0.43438720703125	1.80664062499999E-07	7.84781590823513E-08	2404392	2.94585188385099E-05
1	276	89.2161887747508	0.424346923828125	0.424346923828125	1.79443359375001E-07	7.61462359832876E-08	2364796	2.94766505248845E-05
1	277	89.3168967744965	0.414276123046875	0.414306640625	1.7852783203125E-07	7.39652676884361E-08	2320683.75	2.94946767098736E-05
1	278	89.4176047742422	0.404205322265625	0.40423583984375	1.7730712890625E-07	7.16738952633023E-08	2279862.25	2.95125937554985E-05
1	279	89.518312773988	0.394134521484375	0.394195556640625	1.7547607421875E-07	6.91718895495796E-08	2246434.75	2.95303580060136E-05
1	280	89.6190207737337	0.384063720703125	0.38409423828125	1.74865722656251E-07	6.71649118544337E-08	2196509.75	2.95479985652491E-05
1	281	89.7197287734795	0.373992919921875	0.373992919921875	1.7364501953125E-07	6.49420073273177E-08	2153778.5	2.95655481750146E-05
1	282	89.8204367732252	0.363922119140625	0.36395263671875	1.71813964843751E-07	6.25321447955685E-08	2118294.75	2.95829431706807E-05
1	283	89.9211447729709	0.353851318359375	0.353851318359375	1.70288085937501E-07	6.02566601060062E-08	2077957.125	2.96001690003322E-05
1	284	90.0218527727167	0.343780517578125	0.34375	1.690673828125E-07	5.81169103952561E-08	2033213.125	2.96172584057786E-05
1	285	90.1225607724624	0.333709716796875	0.333709716796875	1.67236328125001E-07	5.5808385468481E-08	1995438	2.96341913781362E-05
1	286	90.2232687722081	0.323638916015625	0.32366943359375	1.65405273437499E-07	5.35366311282814E-08	1956826.625	2.96509424515534E-05
1	287	90.3239767719539	0.313568115234375	0.313629150390625	1.6357421875E-07	5.13016402692301E-08	1917350.75	2.96675061690621E-05
1	288	90.4246847716996	0.303497314453125	0.30352783203125	1.617431640625E-07	4.90935505581547E-08	1876603.875	2.96838879876304E-05
1	289	90.5253927714454	0.293426513671875	0.29339599609375	1.59606933593751E-07	4.68280347831751E-08	1838241	2.97000697173644E-05
1	290	90.6261007711911	0.283355712890625	0.2833251953125	1.57470703125E-07	4.46154153621592E-08	1799224.875	2.97160349873593E-05
1	291	90.7268087709368	0.273284912109375	0.27325439453125	1.54724121093749E-07	4.22790442655696E-08	1766075	2.97317565127742E-05
1	292	90.8275167706826	0.263214111328125	0.26324462890625	1.51672363281249E-07	3.99269310946693E-08	1735613.75	2.97471833619056E-05
1	293	90.9282247704283	0.253143310546875	0.25311279296875	1.48925781250001E-07	3.76950204383775E-08	1699590.25	2.97623209917219E-05
1	294	91.028932770174	0.243072509765625	0.243133544921875	1.45874023437501E-07	3.54668685531578E-08	1666736.375	2.97771639452549E-05
1	295	91.1296407699198	0.233001708984375	0.23297119140625	1.42822265625001E-07	3.32734728658579E-08	1631196.625	2.9791701308568E-05
1	296	91.2303487696655	0.222930908203125	0.22296142578125	1.3885498046875E-07	3.09593026770472E-08	1605714.375	2.98058857879369E-05
1	297	91.3310567694112	0.212860107421875	0.212860107421875	1.35192871093751E-07	2.87771673157522E-08	1574492.25	2.98196846415522E-05
1	298	91.431764769157	0.202789306640625	0.202850341796875	1.30310058593749E-07	2.64334385491338E-08	1556674.5	2.98330542136682E-05
1	299	91.5324727689027	0.192718505859375	0.1927490234375	1.25732421874999E-07	2.4234799056444E-08	1533009.875	2.98459472105606E-05
1	300	91.6331807686485	0.182647705078125	0.182647705078125	1.19628906249999E-07	2.18499458526367E-08	1526785.75	2.98583017865894E-05
1	301	91.7338887683942	0.172576904296875	0.172637939453125	1.129150390625E-07	1.94934202113473E-08	1528918.875	2.98700106213801E-05
1	302	91.8345967681399	0.162506103515625	0.162506103515625	1.04370117187499E-07	1.69607812239292E-08	1557017.5	2.98809518426424E-05
1	303	91.9353047678857	0.152435302734375	0.152557373046875	9.49096679687497E-08	1.44791689749013E-08	1607395.5	2.98909872071818E-05
1	304	92.0360127676314	0.142364501953125	0.142425537109375	8.23974609375E-08	1.17355023476762E-08	1728518.625	2.98999148071744E-05
1	305	92.1367207673771	0.132293701171875	0.13232421875	6.46972656249994E-08	8.56101411983445E-09	2045283.125	2.99073217320256E-05
1	306	92.2374287671229	0.122222900390625	0.122283935546875	4.2724609375E-08	5.22453325046968E-09	2862143	2.99127314065117E-05
1	307	92.3381367668686	0.112152099609375	0.112213134765625	1.15966796875006E-08	1.30129973463511E-09	9676316	2.99154653475853E-05
1	308	92.4388447666144	0.102081298828125	0.102142333984375	-3.02124023437503E-08	-3.08596526110705E-09	-3380808.25	2.99145285680424E-05
1	309	92.5395527663601	0.092010498046875	0.09210205078125	-8.78906250000006E-08	-8.09490696696002E-09	-1047916.625	2.99085822916823E-05
1	310	92.6402607661058	0.081939697265625	0.08197021484375	-1.67236328125001E-07	-1.37083970841445E-08	-490146	2.9895734769525E-05
1	311	92.7409687658516	0.071868896484375	0.071929931640625	-2.734375E-07	-1.96683398456798E-08	-263058.0625	2.98735449177912E-05
1	312	92.8416767655973	0.061798095703125	0.06182861328125	-4.14428710937501E-07	-2.56235530571303E-08	-149189.984375	2.98389077215688E-05
1	313	92.942384765343	0.051727294921875	0.051727294921875	-5.94482421875001E-07	-3.07509679942086E-08	-87012.3203125	2.97881051665172E-05
1	314	93.0430927650888	0.041656494140625	0.0417327880859375	-8.148193359375E-07	-3.40046817370876E-08	-51217.23046875	2.97171427519061E-05
1	315	93.1438007648345	0.031585693359375	0.031671142578125	-1.06964111328125E-06	-3.38767556229413E-08	-29609.1328125	2.96222515316913E-05
1	316	93.2445087645802	0.021514892578125	0.0216461181640625	-1.3409423828125E-06	-2.90261965574246E-08	-16142.466796875	2.95008685498033E-05
1	317	93.345216764326	0.011444091796875	0.0115509033203125	-1.60736083984375E-06	-1.85664692509135E-08	-7186.25439453125	2.93524099106435E-05
1	318	93.4459247640717	0.001373291015625	0.001507568359375	-1.842041015625E-06	-2.77700284989635E-09	-818.4228515625	2.91787200694671E-05
1	319	93.5466327638175	-0.008697509765625	-0.00859375	-2.021484375E-06	1.73721304008723E-08	4251.2080078125	2.89841755147791E-05
1	320	93.6473407635632	-0.018768310546875	-0.018658447265625	-2.13287353515625E-06	3.97961095188748E-08	8748.033203125	2.87749862764031E-05
1	321	93.7480487633089	-0.028839111328125	-0.0286773681640625	-2.17803955078125E-06	6.24604439281029E-08	13166.5966796875	2.85579153569415E-05
1	322	93.8487567630547	-0.038909912109375	-0.03876953125	-2.1661376953125E-06	8.39801401752993E-08	17898	2.83391691482393E-05
1	323	93.9494647628004	-0.048980712890625	-0.04879150390625	-2.1160888671875E-06	1.03247160154751E-07	23057.400390625	2.81235406873748E-05
1	324	94.0501727625461	-0.059051513671875	-0.058929443359375	-2.04315185546875E-06	1.20401807635062E-07	28842.419921875	2.79141058854293E-05
1	325	94.1508807622919	-0.069122314453125	-0.069061279296875	-1.96044921875E-06	1.35391132971563E-07	35227.2734375	2.77125091088237E-05
1	326	94.2515887620376	-0.079193115234375	-0.0791015625	-1.87744140625E-06	1.48508547681558E-07	42132.640625	2.75192560366122E-05
1	327	94.3522967617834	-0.089263916015625	-0.089202880859375	-1.79901123046875E-06	1.6047698636612E-07	49584.39453125	2.73341320280451E-05
1	328	94.4530047615291	-0.099334716796875	-0.099273681640625	-1.72607421875E-06	1.71353732980606E-07	57514.14453125	2.71566295850789E-05
1	329	94.5537127612748	-0.109405517578125	-0.109283447265625	-1.661376953125E-06	1.81560992018603E-07	65778.84375	2.69860574917402E-05
1	330	94.6544207610206	-0.119476318359375	-0.119384765625	-1.60552978515625E-06	1.91675795235824E-07	74358.4921875	2.68215571850305E-05
1	331	94.7551287607663	-0.129547119140625	-0.12945556640625	-1.556396484375E-06	2.01484184003675E-07	83176.46875	2.66623410425382E-05
1	332	94.855836760512	-0.139617919921875	-0.139495849609375	-1.51397705078125E-06	2.11193508903307E-07	92138.6796875	2.65077360381838E-05
1	333	94.9565447602578	-0.149688720703125	-0.149566650390625	-1.47735595703125E-06	2.20963173092059E-07	101239.4140625	2.6357109163655E-05
1	334	95.0572527600035	-0.159759521484375	-0.159637451171875	-1.44622802734375E-06	2.30872146289585E-07	110381.9375	2.62098947132472E-05
1	335	95.1579607597492	-0.169830322265625	-0.169677734375	-1.41937255859375E-06	2.40835930753747E-07	119544.1875	2.60656015598215E-05
1	336	95.258668759495	-0.179901123046875	-0.17974853515625	-1.3970947265625E-06	2.5112572643593E-07	128658.8046875	2.59237804129953E-05
1	337	95.3593767592407	-0.189971923828125	-0.1898193359375	-1.3787841796875E-06	2.61719890204404E-07	137671.53125	2.57840038102586E-05
1	338	95.4600847589865	-0.200042724609375	-0.199951171875	-1.363525390625E-06	2.72638487786026E-07	146642.796875	2.56459170486778E-05
1	339	95.5607927587322	-0.189971923828125	-0.189788818359375	-1.20697021484375E-06	2.29069442525542E-07	157244	2.55164832196897E-05
2	340	95.6615007584779	-0.179901123046875	-0.179779052734375	-1.097412109375E-06	1.97291711856451E-07	163820.90625	2.54004480666481E-05
2	341	95.7622087582237	-0.169830322265625	-0.169708251953125	-1.00830078125E-06	1.71116951719341E-07	168311.140625	2.5294417355326E-05
2	342	95.8629167579694	-0.159759521484375	-0.15966796875	-9.32922363281249E-07	1.48957809642525E-07	171148.1875	2.51966685027583E-05
2	343	95.9636247577151	-0.149688720703125	-0.149566650390625	-8.66088867187501E-07	1.2953800876403E-07	172692.046875	2.51060810114723E-05
2	344	96.0643327574609	-0.139617919921875	-0.1395263671875	-8.056640625E-07	1.1241137798379E-07	173181.8125	2.5021901819855E-05
2	345	96.1650407572066	-0.129547119140625	-0.129486083984375	-7.4920654296875E-07	9.7011820798798E-08	172830.953125	2.49436070589582E-05
2	346	96.2657487569523	-0.119476318359375	-0.119384765625	-6.95190429687501E-07	8.29951432024245E-08	171729.59375	2.48708765866468E-05
2	347	96.3664567566981	-0.109405517578125	-0.109344482421875	-6.41784667968751E-07	7.01756093235417E-08	170375.65625	2.48035539698321E-05
2	348	96.4671647564438	-0.099334716796875	-0.099273681640625	-5.86853027343751E-07	5.82590580222586E-08	169162.78125	2.47416883212281E-05
2	349	96.5678727561896	-0.089263916015625	-0.08917236328125	-5.2825927734375E-07	4.71061269990969E-08	168804.171875	2.46855379373301E-05
2	350	96.6685807559353	-0.079193115234375	-0.079132080078125	-4.620361328125E-07	3.65618788578104E-08	171268.171875	2.46356721618213E-05
2	351	96.769288755681	-0.069122314453125	-0.069091796875	-3.83911132812501E-07	2.65251092201879E-08	179968.203125	2.4593075067969E-05
2	352	96.8699967554268	-0.059051513671875	-0.0589599609375	-2.886962890625E-07	1.70215201933388E-08	204228.34375	2.45592073042644E-05
2	353	96.9707047551725	-0.048980712890625	-0.04881591796875	-1.7059326171875E-07	8.32766655634032E-09	286153.84375	2.45360806729877E-05
2	354	97.0714127549182	-0.038909912109375	-0.0387542724609375	-2.04467773437494E-08	7.92399978966074E-10	1895373.25	2.45264600380324E-05
2	355	97.172120754664	-0.028839111328125	-0.02872314453125	1.66015625E-07	-4.76849093544729E-09	-173014.703125	2.45337905653287E-05
2	356	97.2728287544097	-0.018768310546875	-0.018634033203125	3.9093017578125E-07	-7.28460536336684E-09	-47665.88671875	2.45618339249631E-05
2	357	97.3735367541555	-0.008697509765625	-0.00861206054687499	6.500244140625E-07	-5.59804957944721E-09	-13248.8271484375	2.46142517426051E-05
2	358	97.4742447539012	0.001373291015625	0.0014495849609375	9.307861328125E-07	1.34925348671544E-09	1557.37707519531	2.46938507189043E-05
2	359	97.5749527536469	0.011444091796875	0.0115234375	1.21307373046875E-06	1.39787790232049E-08	9499.37109375	2.48018022830365E-05
2	360	97.6756607533927	0.021514892578125	0.0216278076171875	1.47003173828125E-06	3.17935651139578E-08	14712.4765625	2.49369077209849E-05
2	361	97.7763687531384	0.031585693359375	0.031671142578125	1.6778564453125E-06	5.31396331382439E-08	18875.95703125	2.50954162765993E-05
2	362	97.8770767528841	0.041656494140625	0.0417572021484375	1.8218994140625E-06	7.60774199193293E-08	22919.599609375	2.52716436079936E-05
2	363	97.9777847526299	0.051727294921875	0.0517578125	1.89727783203125E-06	9.81989458637145E-08	27280.0390625	2.54589194810251E-05
2	364	98.0784927523756	0.061798095703125	0.061859130859375	1.91253662109375E-06	1.18307852403632E-07	32344.0234375	2.565075919847E-05
2	365	98.1792007521213	0.071868896484375	0.0718994140625	1.88262939453125E-06	1.35359954356318E-07	38190.95703125	2.58418604062172E-05
2	366	98.2799087518671	0.081939697265625	0.08197021484375	1.82525634765625E-06	1.49616653288831E-07	44908.87890625	2.60285669355653E-05
2	367	98.3806167516128	0.092010498046875	0.092041015625	1.75384521484375E-06	1.61425688816053E-07	52479.55859375	2.62087887676898E-05
2	368	98.4813247513586	0.102081298828125	0.102142333984375	1.67755126953125E-06	1.71349000765986E-07	60887.7578125	2.63815727521433E-05
2	369	98.5820327511043	0.112152099609375	0.11224365234375	1.6033935546875E-06	1.79970754743408E-07	70003.8046875	2.65467824647203E-05
2	370	98.68274075085	0.122222900390625	0.12225341796875	1.5338134765625E-06	1.87513933269656E-07	79705.53125	2.67047525994712E-05
2	371	98.7834487505958	0.132293701171875	0.13238525390625	1.47064208984375E-06	1.9469131018468E-07	90018.6796875	2.68560397671536E-05
2	372	98.8841567503415	0.142364501953125	0.142364501953125	1.4141845703125E-06	2.01329683591212E-07	100668.96875	2.70013024419313E-05
2	373	98.9848647500872	0.152435302734375	0.152496337890625	1.36383056640625E-06	2.07979155675275E-07	111814.7265625	2.71411863650428E-05
2	374	99.085572749833	0.162506103515625	0.16253662109375	1.31988525390625E-06	2.14529677577957E-07	123144.515625	2.7276322725811E-05
2	375	99.1862807495787	0.172576904296875	0.172607421875	1.280517578125E-06	2.21026823510329E-07	134795.046875	2.74072626780253E-05
2	376	99.2869887493245	0.182647705078125	0.18267822265625	1.24603271484375E-06	2.2762303331092E-07	146607.890625	2.75344846158987E-05
2	377	99.3876967490702	0.192718505859375	0.1927490234375	1.2158203125E-06	2.34348163985487E-07	158534.140625	2.76584487437503E-05
2	378	99.4884047488159	0.202789306640625	0.2027587890625	1.18865966796875E-06	2.41011207435804E-07	170577.65625	2.77795243164292E-05
2	379	99.5891127485617	0.212860107421875	0.212890625	1.16485595703125E-06	2.47986918111565E-07	182761.34375	2.78980332950596E-05
2	380	99.6898207483074	0.222930908203125	0.222930908203125	1.14410400390625E-06	2.55056136211351E-07	194851.96875	2.8014297640766E-05
2	381	99.7905287480531	0.233001708984375	0.233001708984375	1.1248779296875E-06	2.62098495795726E-07	207135.109375	2.81285501841921E-05
2	382	99.8912367477989	0.243072509765625	0.24310302734375	1.1077880859375E-06	2.69306639211209E-07	219449.03125	2.82409746432677E-05
2	383	99.9919447475446	0.253143310546875	0.253143310546875	1.092529296875E-06	2.76566481716145E-07	231703.921875	2.83517692878377E-05
2	384	100.09265274729	0.263214111328125	0.26318359375	1.0784912109375E-06	2.83841188775114E-07	244029.421875	2.84610887320014E-05
2	385	100.193360747036	0.273284912109375	0.273345947265625	1.065673828125E-06	2.9129762424418E-07	256500.578125	2.85690566670382E-05
2	386	100.294068746782	0.283355712890625	0.2833251953125	1.05499267578125E-06	2.98905973750152E-07	268556.5625	2.86758404399734E-05
2	387	100.394776746528	0.293426513671875	0.293426513671875	1.0443115234375E-06	3.0642868864561E-07	280976.03125	2.87815491901711E-05
2	388	100.495484746273	0.303497314453125	0.303466796875	1.03485107421875E-06	3.14042921445434E-07	293246.84375	2.88862429442815E-05
2	389	100.596192746019	0.313568115234375	0.313568115234375	1.02691650390625E-06	3.22008276043562E-07	305349.1875	2.89900599454995E-05
2	390	100.696900745765	0.323638916015625	0.32366943359375	1.01898193359375E-06	3.29813303778792E-07	317640	2.90930802293587E-05
2	391	100.797608745511	0.333709716796875	0.333740234375	1.01226806640625E-06	3.37834592301078E-07	329695.5	2.91953620035201E-05
2	392	100.898316745256	0.343780517578125	0.34375	1.0064697265625E-06	3.45973944604339E-07	341540.34375	2.92970125883585E-05
2	393	100.999024745002	0.353851318359375	0.35382080078125	1.00128173828125E-06	3.54274305891522E-07	353367.875	2.93981120194076E-05
2	394	101.099732744748	0.363922119140625	0.3638916015625	9.967041015625E-07	3.62692247790619E-07	365094.90625	2.94987185043283E-05
2	395	101.200440744493	0.373992919921875	0.374053955078125	9.92431640625E-07	3.71222967032736E-07	376906.53125	2.95988793368451E-05
2	396	101.301148744239	0.384063720703125	0.38409423828125	9.8876953125E-07	3.79780686898812E-07	388456.78125	2.96986399916932E-05
2	397	101.401856743985	0.394134521484375	0.3941650390625	9.86633300781251E-07	3.88896353342716E-07	399505.125	2.97981096082367E-05
2	398	101.502564743731	0.404205322265625	0.404205322265625	9.83581542968751E-07	3.97568896914891E-07	410952.53125	2.98973172903061E-05
2	399	101.603272743476	0.414276123046875	0.41424560546875	9.82055664062501E-07	4.06812233677556E-07	421814.78125	2.99962957797106E-05
2	400	101.703980743222	0.424346923828125	0.42437744140625	9.80529785156251E-07	4.16114716017546E-07	432804.25	3.00951196550159E-05
2	401	101.804688742968	0.434417724609375	0.43438720703125	9.796142578125E-07	4.25531908376797E-07	443426.8125	3.01938198390417E-05
2	402	101.905396742714	0.444488525390625	0.444549560546875	9.79003906250001E-07	4.35215724792215E-07	454083.5625	3.02924454445019E-05
2	403	102.006104742459	0.454559326171875	0.45452880859375	9.78698730468749E-07	4.44846762093221E-07	464421.59375	3.03910237562377E-05
2	404	102.106812742205	0.464630126953125	0.464630126953125	9.79003906250001E-07	4.54874680144712E-07	474594.78125	3.04896020679735E-05
2	405	102.207520741951	0.474700927734375	0.474639892578125	9.7930908203125E-07	4.64819180479026E-07	484668.09375	3.05882094835397E-05
2	406	102.308228741697	0.484771728515625	0.484771728515625	9.80224609374999E-07	4.75185174764192E-07	494551.6875	3.06868787447456E-05
2	407	102.408936741442	0.494842529296875	0.494842529296875	9.814453125E-07	4.85660848426051E-07	504197.78125	3.07856571453158E-05
2	408	102.509644741188	0.504913330078125	0.5048828125	9.8297119140625E-07	4.96285281315068E-07	513629.3125	3.08845737890806E-05
2	409	102.610352740934	0.514984130859375	0.5150146484375	9.8480224609375E-07	5.07187564835476E-07	522962.5	3.09836614178494E-05
2	410	102.711060740679	0.525054931640625	0.5250244140625	9.8724365234375E-07	5.18326999099372E-07	531808.375	3.10829600493889E-05
2	411	102.811768740425	0.535125732421875	0.535064697265625	9.89685058593751E-07	5.29545559402322E-07	540641.375	3.11825060634874E-05
2	412	102.912476740171	0.545196533203125	0.545196533203125	9.930419921875E-07	5.41403039733268E-07	549016.5625	3.12823431158904E-05
2	413	103.013184739917	0.555267333984375	0.55523681640625	9.9609375E-07	5.53067877717695E-07	557414.25	3.13825039484072E-05
2	414	103.113892739662	0.565338134765625	0.5653076171875	1.00006103515625E-06	5.65342133995728E-07	565273.125	3.14830213028472E-05
2	415	103.214600739408	0.575408935546875	0.575408935546875	1.0040283203125E-06	5.77726837036607E-07	573100.3125	3.15839351969771E-05
2	416	103.315308739154	0.585479736328125	0.58544921875	1.00799560546875E-06	5.90130241562292E-07	580805.3125	3.16852492687758E-05
2	417	103.4160167389	0.595550537109375	0.595489501953125	1.01287841796875E-06	6.03158468948095E-07	587918.0625	3.1787007173989E-05
2	418	103.516724738645	0.605621337890625	0.605560302734375	1.01776123046875E-06	6.16315787738131E-07	594992.5625	3.18892562063411E-05
2	419	103.617432738391	0.615692138671875	0.61572265625	1.02294921875E-06	6.29852991096413E-07	601909.3125	3.19920145557262E-05
2	420	103.718140738137	0.625762939453125	0.625701904296875	1.0284423828125E-06	6.43498367480788E-07	608397.625	3.20953113259748E-05
2	421	103.818848737883	0.635833740234375	0.635772705078125	1.03515625E-06	6.58124065466836E-07	614180.5	3.21992229146417E-05
2	422	103.919556737628	0.645904541015625	0.645843505859375	1.0418701171875E-06	6.72884993946354E-07	619888.75	3.2303807529388E-05
2	423	104.020264737374	0.655975341796875	0.6558837890625	1.04888916015625E-06	6.87949352595751E-07	625312.8125	3.24090869980864E-05
2	424	104.12097273712	0.666046142578125	0.66595458984375	1.05621337890625E-06	7.03390128364845E-07	630511.4375	3.25150867865887E-05
2	425	104.221680736866	0.676116943359375	0.67608642578125	1.06353759765625E-06	7.19043271146802E-07	635695.875	3.26218250847887E-05
2	426	104.322388736611	0.686187744140625	0.686126708984375	1.070556640625E-06	7.34537536573043E-07	640906.5	3.27292837027926E-05
2	427	104.423096736357	0.696258544921875	0.696136474609375	1.07818603515625E-06	7.50564595364267E-07	645655.3125	3.28374808304943E-05
2	428	104.523804736103	0.706329345703125	0.706298828125	1.085205078125E-06	7.66479104186146E-07	650843.625	3.29464164678939E-05
2	429	104.624512735848	0.716400146484375	0.716339111328125	1.092529296875E-06	7.8262144143082E-07	655670.4375	3.3056076063076E-05
2	430	104.725220735594	0.726470947265625	0.72637939453125	1.1004638671875E-06	7.993542112672E-07	660066.5625	3.31664996338077E-05
2	431	104.82592873534	0.736541748046875	0.7364501953125	1.109619140625E-06	8.17179227396991E-07	663696.375	3.32777890434954E-05
2	432	104.926636735086	0.746612548828125	0.74652099609375	1.1199951171875E-06	8.36099843581906E-07	666539.5	3.33900570694823E-05
2	433	105.027344734831	0.756683349609375	0.75714111328125	1.1322021484375E-06	8.57236784668203E-07	668733.1875	3.35034637828358E-05
2	434	105.128052734577	0.766754150390625	0.7666015625	1.146240234375E-06	8.78709499829711E-07	668796.625	3.3618194720475E-05
2	435	105.228760734323	0.776824951171875	0.7769775390625	1.1639404296875E-06	9.04355545117141E-07	667540.6875	3.37345190928318E-05
2	436	105.329468734069	0.786895751953125	0.78704833984375	1.1859130859375E-06	9.33370927214128E-07	663664.4375	3.38528443535324E-05
2	437	105.430176733814	0.796966552734375	0.79742431640625	1.21185302734375E-06	9.66361085374956E-07	658020.625	3.39735815941822E-05
2	438	105.53088473356	0.807037353515625	0.806884765625	1.2420654296875E-06	1.00220370313764E-06	649631.4375	3.4097145544365E-05
2	439	105.631592733306	0.817108154296875	0.81787109375	1.27593994140625E-06	1.0435543345011E-06	640995	3.42239400197286E-05
2	440	105.732300733052	0.827178955078125	0.82794189453125	1.31378173828125E-06	1.08773485862912E-06	630197.4375	3.435433973209E-05
2	441	105.833008732797	0.837249755859375	0.83709716796875	1.35009765625E-06	1.13016290015366E-06	620027.125	3.44884792866651E-05
2	442	105.933716732543	0.847320556640625	0.84716796875	1.38336181640625E-06	1.17193974347174E-06	612398	3.46261185768526E-05
2	443	106.034424732289	0.857391357421875	0.8575439453125	1.4105224609375E-06	1.2095848660465E-06	607961.9375	3.47668028553016E-05
2	444	106.135132732035	0.867462158203125	0.8673095703125	1.4306640625E-06	1.24082862384967E-06	606228.6875	3.49098663718905E-05
2	445	106.23584073178	0.877532958984375	0.877685546875	1.44256591796875E-06	1.26611928408238E-06	608419.6875	3.50545451510698E-05
2	446	106.336548731526	0.887603759765625	0.887451171875	1.44866943359375E-06	1.2856233979619E-06	612597.4375	3.5200129786972E-05
2	447	106.437256731272	0.897674560546875	0.89752197265625	1.4501953125E-06	1.30158218780707E-06	618897.3125	3.53461000486277E-05
2	448	106.537964731017	0.907745361328125	0.9075927734375	1.44866943359375E-06	1.31480192067102E-06	626500.9375	3.54920703102835E-05
2	449	106.638672730763	0.917816162109375	0.91796875	1.44622802734375E-06	1.32759214466205E-06	634733.0625	3.56378404831048E-05
2	450	106.739380730509	0.927886962890625	0.927734375	1.44439697265625E-06	1.34001675178297E-06	642298.75	3.57833960151765E-05
2	451	106.840088730255	0.937957763671875	0.93780517578125	1.44317626953125E-06	1.35341804252676E-06	649820.3125	3.59287951141596E-05
2	452	106.94079673	0.948028564453125	0.94818115234375	1.44287109375E-06	1.36810308504209E-06	657148.9375	3.60741178155877E-05
2	453	107.041504729746	0.958099365234375	0.9576416015625	1.44500732421875E-06	1.38379914460529E-06	662724.375	3.62195351044647E-05
2	454	107.142212729492	0.968170166015625	0.968017578125	1.448974609375E-06	1.40263284720277E-06	668070.8125	3.63652579835616E-05
2	455	107.242920729238	0.978240966796875	0.97869873046875	1.455078125E-06	1.42408305237041E-06	672609.0625	3.65114901796915E-05
2	456	107.343628728983	0.988311767578125	0.98846435546875	1.46209716796875E-06	1.44523085054971E-06	676059.3125	3.66583808499854E-05
2	457	107.444336728729	0.998382568359375	0.99822998046875	1.470947265625E-06	1.46834361203219E-06	678630.6875	3.68060718756169E-05
2	458	107.545044728475	1.00845336914063	1.00830078125	1.478271484375E-06	1.49054221765255E-06	682080.9375	3.69545778085012E-05
2	459	107.645752728221	1.01852416992188	1.01898193359375	1.48468017578125E-06	1.51286224081559E-06	686330.9375	3.710377131938E-05
2	460	107.746460727966	1.02859497070313	1.02874755859375	1.48834228515625E-06	1.53112841871916E-06	691203.625	3.72534777852707E-05
2	461	107.847168727712	1.03866577148438	1.0382080078125	1.4898681640625E-06	1.54679310071515E-06	696845.5625	3.74034425476566E-05
2	462	107.947876727458	1.04873657226563	1.04888916015625	1.4898681640625E-06	1.56270652951207E-06	704014.75	3.75534837075975E-05
2	463	108.048584727204	1.05880737304688	1.0589599609375	1.48834228515625E-06	1.57609485995636E-06	711503	3.77034484699834E-05
2	464	108.149292726949	1.06887817382813	1.0687255859375	1.4862060546875E-06	1.58834632202343E-06	719096.5625	3.78532276954502E-05
2	465	108.250000726695	1.07894897460938	1.07879638671875	1.483154296875E-06	1.60002150551009E-06	727366.25	3.80027486244217E-05
2	466	108.350708726441	1.08901977539063	1.0894775390625	1.480712890625E-06	1.61320338065707E-06	735779.0625	3.8151989429025E-05
2	467	108.451416726186	1.09909057617188	1.0986328125	1.4776611328125E-06	1.62340688802942E-06	743494.4375	3.83009573852178E-05
2	468	108.552124725932	1.10916137695313	1.1090087890625	1.475830078125E-06	1.63670847541653E-06	751447.5	3.84496743208729E-05
2	469	108.652832725678	1.11923217773438	1.11907958984375	1.47430419921875E-06	1.64986374784348E-06	759056.0625	3.85982275474817E-05
2	470	108.753540725424	1.12930297851563	1.12945556640625	1.47308349609375E-06	1.6637823136989E-06	766728.875	3.8746638892917E-05
2	471	108.854248725169	1.13937377929688	1.1395263671875	1.473388671875E-06	1.67896519087662E-06	773405.1875	3.88950065826066E-05
2	472	108.954956724915	1.14944458007813	1.1492919921875	1.4739990234375E-06	1.69405518590793E-06	779710.1875	3.90434179280419E-05
2	473	109.055664724661	1.15951538085938	1.15966796875	1.47552490234375E-06	1.71111889812892E-06	785935.875	3.91919384128414E-05
2	474	109.156372724407	1.16958618164063	1.16943359375	1.47735595703125E-06	1.7276696553381E-06	791572	3.93406298826449E-05
2	475	109.257080724152	1.17965698242188	1.1798095703125	1.47979736328125E-06	1.74587910350965E-06	797277.8125	3.94895323552191E-05
2	476	109.357788723898	1.18972778320313	1.1895751953125	1.48345947265625E-06	1.76468654444761E-06	801892.625	3.9638744055992E-05
2	477	109.458496723644	1.19979858398438	1.199951171875	1.48773193359375E-06	1.78520565441431E-06	806564.125	3.97883559344336E-05
2	478	109.55920472339	1.20986938476563	1.209716796875	1.492919921875E-06	1.80601023203053E-06	810302.5625	3.9938444388099E-05
2	479	109.659912723135	1.21994018554688	1.21978759765625	1.4984130859375E-06	1.82774567747401E-06	814052.9375	4.00890712626278E-05
2	480	109.760620722881	1.23001098632813	1.23016357421875	1.505126953125E-06	1.85155226972711E-06	817315.5625	4.02403093175963E-05
2	481	109.861328722627	1.24008178710938	1.23992919921875	1.51275634765625E-06	1.87571072274295E-06	819649	4.03922713303473E-05
2	482	109.962036722373	1.25015258789063	1.25	1.52099609375E-06	1.90124512755574E-06	821829.875	4.05450336984359E-05
2	483	110.062744722118	1.26022338867188	1.26007080078125	1.5301513671875E-06	1.92809898180712E-06	823494.25	4.0698672819417E-05
2	484	110.163452721864	1.27029418945313	1.27044677734375	1.54052734375E-06	1.95715779227612E-06	824683.0625	4.0853294194676E-05
2	485	110.26416072161	1.28036499023438	1.280517578125	1.55242919921875E-06	1.98791281036392E-06	824847.6875	4.10090360674076E-05
2	486	110.364868721355	1.29043579101563	1.290283203125	1.5643310546875E-06	2.01842999558721E-06	824814.6875	4.11659748351667E-05
2	487	110.465576721101	1.30050659179688	1.30035400390625	1.5777587890625E-06	2.05164496946963E-06	824177.9375	4.13241941714659E-05
2	488	110.566284720847	1.31057739257813	1.3104248046875	1.59271240234375E-06	2.08712981475401E-06	822763	4.14838395954575E-05
2	489	110.666992720593	1.32064819335938	1.32110595703125	1.60797119140625E-06	2.12430018109444E-06	821598.0625	4.16450056945905E-05
2	490	110.767700720338	1.33071899414063	1.33026123046875	1.6241455078125E-06	2.16053786061821E-06	819053	4.18077579524834E-05
2	491	110.868408720084	1.34078979492188	1.34063720703125	1.64154052734375E-06	2.20071024159552E-06	816694.5625	4.19721982325427E-05
2	492	110.96911671983	1.35086059570313	1.3507080078125	1.65924072265625E-06	2.2411495592678E-06	814051.9375	4.21384029323235E-05
2	493	111.069824719576	1.36093139648438	1.3604736328125	1.6778564453125E-06	2.2826793610875E-06	810840.3125	4.23064411734231E-05
2	494	111.170532719321	1.37100219726563	1.37054443359375	1.69769287109375E-06	2.32676347877714E-06	807298.25	4.2476414819248E-05
2	495	111.271240719067	1.38107299804688	1.38153076171875	1.71722412109375E-06	2.37239783018595E-06	804513.9375	4.2648367525544E-05
2	496	111.371948718813	1.39114379882813	1.3909912109375	1.7376708984375E-06	2.41708471548918E-06	800491.8125	4.28223356720991E-05
2	497	111.472656718559	1.40121459960938	1.4007568359375	1.75933837890625E-06	2.46440527007508E-06	796183.875	4.29984247602988E-05
2	498	111.573364718304	1.41128540039063	1.41143798828125	1.7840576171875E-06	2.5180866032315E-06	791139.25	4.31768494308926E-05
2	499	111.67407271805	1.42135620117188	1.4215087890625	1.81182861328125E-06	2.57553028859547E-06	784571.3125	4.33579152741004E-05
2	500	111.774780717796	1.43142700195313	1.43096923828125	1.84417724609375E-06	2.63896072283387E-06	775939.125	4.35420115536544E-05
2	501	111.875488717542	1.44149780273438	1.4410400390625	1.88323974609375E-06	2.71382396022091E-06	765192	4.37296985182911E-05
2	502	111.976196717287	1.45156860351563	1.45172119140625	1.92840576171875E-06	2.79950745607493E-06	752809	4.39216310041957E-05
2	503	112.076904717033	1.46163940429688	1.461181640625	1.98028564453125E-06	2.89355693894322E-06	737864.125	4.41184492956381E-05
2	504	112.177612716779	1.47171020507813	1.47186279296875	2.0391845703125E-06	3.00139959108492E-06	721789.9375	4.43208482465707E-05
2	505	112.278320716524	1.48178100585938	1.48162841796875	2.10662841796875E-06	3.12124052470608E-06	703317.375	4.4529606384458E-05
2	506	112.37902871627	1.49185180664063	1.49169921875	2.1820068359375E-06	3.25489759234188E-06	683636.375	4.47455531684682E-05
2	507	112.479736716016	1.50192260742188	1.5020751953125	2.26409912109375E-06	3.40084693561948E-06	663431.75	4.49694343842566E-05
2	508	112.580444715762	1.49185180664063	1.49139404296875	2.01446533203125E-06	3.00436158795492E-06	740342.375	4.51848754892126E-05
2	509	112.681152715507	1.48178100585938	1.48162841796875	1.8353271484375E-06	2.71927274297923E-06	807283	4.53787288279273E-05
2	510	112.781860715253	1.47171020507813	1.47186279296875	1.6949462890625E-06	2.49472827817954E-06	868383.1875	4.55564913863782E-05
2	511	112.882568714999	1.46163940429688	1.46270751953125	1.58111572265625E-06	2.31270996664534E-06	925111	4.57214555353858E-05
2	512	112.983276714745	1.45156860351563	1.45172119140625	1.48590087890625E-06	2.15711384043971E-06	976997.375	4.58758913737256E-05
2	513	113.08398471449	1.44149780273438	1.441650390625	1.4056396484375E-06	2.02644082492043E-06	1025618.75	4.60214941995218E-05
2	514	113.184692714236	1.43142700195313	1.431884765625	1.33819580078125E-06	1.91614208233659E-06	1070011.5	4.61596573586576E-05
2	515	113.285400713982	1.42135620117188	1.42120361328125	1.27960205078125E-06	1.81857490133552E-06	1110660.75	4.62914722447749E-05
2	516	113.386108713728	1.41128540039063	1.4111328125	1.2298583984375E-06	1.73549358351011E-06	1147394.5	4.64178338006604E-05
2	517	113.486816713473	1.40121459960938	1.40167236328125	1.1865234375E-06	1.66311701832456E-06	1181327.25	4.65395096398424E-05
2	518	113.587524713219	1.39114379882813	1.3909912109375	1.1492919921875E-06	1.59865498972067E-06	1210302.75	4.66571254946757E-05
2	519	113.688232712965	1.38107299804688	1.380615234375	1.1163330078125E-06	1.54122631101927E-06	1236741.375	4.67712088720873E-05
2	520	113.788940712711	1.37100219726563	1.370849609375	1.08642578125E-06	1.48932633692311E-06	1261797.75	4.68821272079367E-05
2	521	113.889648712456	1.36093139648438	1.361083984375	1.06048583984375E-06	1.44341026953043E-06	1283453.25	4.69902333861683E-05
2	522	113.990356712202	1.35086059570313	1.35101318359375	1.036376953125E-06	1.40015890792711E-06	1303592.5	4.70958184450865E-05
2	523	114.091064711948	1.34078979492188	1.3409423828125	1.0150146484375E-06	1.36107610160252E-06	1321106.5	4.7199115215335E-05
2	524	114.191772711693	1.33071899414063	1.33056640625	9.95788574218751E-07	1.32496279547922E-06	1336193.625	4.73003638035152E-05
2	525	114.292480711439	1.32064819335938	1.3201904296875	9.77783203125E-07	1.29086004108103E-06	1350187.25	4.73997424705885E-05
2	526	114.393188711185	1.31057739257813	1.3104248046875	9.6099853515625E-07	1.25931626371312E-06	1363607.625	4.74973676318768E-05
2	527	114.493896710931	1.30050659179688	1.3006591796875	9.4482421875E-07	1.228894234373E-06	1376615	4.75933338748291E-05
2	528	114.594604710676	1.29043579101563	1.29058837890625	9.3048095703125E-07	1.20086792776419E-06	1387012.125	4.7687761252746E-05
2	529	114.695312710422	1.28036499023438	1.28021240234375	9.16748046875E-07	1.1736321994249E-06	1396471.375	4.77807770948857E-05
2	530	114.796020710168	1.27029418945313	1.2701416015625	9.0301513671875E-07	1.14695706088241E-06	1406556.25	4.78724105050787E-05
2	531	114.896728709914	1.26022338867188	1.26068115234375	8.9080810546875E-07	1.12302495836047E-06	1415210.625	4.796273788088E-05
2	532	114.997436709659	1.25015258789063	1.25	8.77685546875E-07	1.09710686047038E-06	1424200.375	4.805178832612E-05
2	533	115.098144709405	1.24008178710938	1.240234375	8.6639404296875E-07	1.07453161035664E-06	1431490	4.81396091345232E-05
2	534	115.198852709151	1.23001098632813	1.23016357421875	8.5418701171875E-07	1.05078970591421E-06	1440157.25	4.82262475998141E-05
2	535	115.299560708897	1.21994018554688	1.22039794921875	8.43505859375E-07	1.0294128287569E-06	1446816.25	4.83117328258231E-05
2	536	115.400268708642	1.20986938476563	1.209716796875	8.31298828125E-07	1.00563613614213E-06	1455213	4.83960648125503E-05
2	537	115.500976708388	1.19979858398438	1.199951171875	8.2000732421875E-07	9.83968675427604E-07	1463342	4.84792144561652E-05
2	538	115.601684708134	1.18972778320313	1.1895751953125	8.0841064453125E-07	9.61665250542865E-07	1471498.75	4.85612144984771E-05
2	539	115.70239270788	1.17965698242188	1.17950439453125	7.9681396484375E-07	9.3984556315263E-07	1480275.75	4.8642043111613E-05
2	540	115.803100707625	1.16958618164063	1.1700439453125	7.855224609375E-07	9.19095782592194E-07	1489510.5	4.87217184854671E-05
2	541	115.903808707371	1.15951538085938	1.15997314453125	7.74230957031249E-07	8.98087137102266E-07	1498226.25	4.88002588099334E-05
2	542	116.004516707117	1.14944458007813	1.14959716796875	7.62939453125E-07	8.77072977800708E-07	1506800.125	4.88776604470331E-05
2	543	116.105224706862	1.13937377929688	1.13922119140625	7.51647949218751E-07	8.56293240758532E-07	1515631.375	4.8953927034745E-05
2	544	116.205932706608	1.12930297851563	1.129150390625	7.3974609375E-07	8.35284595268604E-07	1526402.625	4.90290258312598E-05
2	545	116.306640706354	1.11923217773438	1.11907958984375	7.2784423828125E-07	8.14515601632593E-07	1537526.25	4.91029240947682E-05
2	546	116.4073487061	1.10916137695313	1.109619140625	7.1563720703125E-07	7.94084769495385E-07	1550533	4.91756109113339E-05
2	547	116.508056705845	1.09909057617188	1.09893798828125	7.0343017578125E-07	7.73026101796859E-07	1562256	4.9247064453084E-05
2	548	116.608764705591	1.08901977539063	1.0888671875	6.903076171875E-07	7.51653317365708E-07	1577365.125	4.93172447022516E-05
2	549	116.709472705337	1.07894897460938	1.0791015625	6.7718505859375E-07	7.307514238164E-07	1593510.625	4.93861043651123E-05
2	550	116.810180705083	1.06887817382813	1.06903076171875	6.622314453125E-07	7.07945730482606E-07	1614285.875	4.94535488542169E-05
2	551	116.910888704828	1.05880737304688	1.0589599609375	6.4666748046875E-07	6.84794940752909E-07	1637565	4.9519458116265E-05
2	552	117.011596704574	1.04873657226563	1.04827880859375	6.298828125E-07	6.60292755583214E-07	1664244.25	4.95837375638075E-05
2	553	117.11230470432	1.03866577148438	1.03790283203125	6.11267089843751E-07	6.3443582121181E-07	1697953.125	4.96462344017345E-05
2	554	117.213012704066	1.02859497070313	1.02874755859375	5.91430664062501E-07	6.08432856097352E-07	1739422.125	4.97067958349362E-05
2	555	117.313720703811	1.01852416992188	1.01898193359375	5.7098388671875E-07	5.81822291678691E-07	1784607.125	4.97653272759635E-05
2	556	117.414428703557	1.00845336914063	1.00860595703125	5.50231933593751E-07	5.54967186872091E-07	1833056.125	4.98217850690708E-05
2	557	117.515136703303	0.998382568359375	0.99853515625	5.30395507812501E-07	5.2961854635214E-07	1882623.75	4.98761983180884E-05
2	558	117.615844703049	0.988311767578125	0.98846435546875	5.11779785156249E-07	5.0587607347552E-07	1931425.25	4.99286761623807E-05
2	559	117.716552702794	0.978240966796875	0.9783935546875	4.9560546875E-07	4.84897157093656E-07	1974138.125	4.9979400500888E-05
2	560	117.81726070254	0.968170166015625	0.968017578125	4.81262207031249E-07	4.65870272137181E-07	2011414.125	5.00285896123387E-05
2	561	117.917968702286	0.958099365234375	0.958251953125	4.6875E-07	4.49180589612297E-07	2044270.875	5.00764290336519E-05
2	562	118.018676702031	0.948028564453125	0.94818115234375	4.56848144531249E-07	4.33174790259727E-07	2075484.375	5.01230351801496E-05
2	563	118.119384701777	0.937957763671875	0.9381103515625	4.4586181640625E-07	4.18267575241771E-07	2104038.25	5.01684917253442E-05
2	564	118.220092701523	0.927886962890625	0.927734375	4.3304443359375E-07	4.01750185119454E-07	2142353.75	5.02127477375325E-05
2	565	118.320800701269	0.917816162109375	0.91796875	4.1961669921875E-07	3.85195022545304E-07	2187636.5	5.02556831634138E-05
2	566	118.421508701014	0.907745361328125	0.908203125	4.0313720703125E-07	3.66130450402125E-07	2252838.75	5.02971124660689E-05
2	567	118.52221670076	0.897674560546875	0.89752197265625	3.8330078125E-07	3.440208615757E-07	2341560.5	5.03367118653841E-05
2	568	118.622924700506	0.887603759765625	0.88775634765625	3.5888671875E-07	3.18603980531407E-07	2473639.5	5.03740848216694E-05
2	569	118.723632700252	0.877532958984375	0.87799072265625	3.2928466796875E-07	2.89108868400945E-07	2666357.75	5.04087365698069E-05
2	570	118.824340699997	0.867462158203125	0.8673095703125	2.95104980468749E-07	2.5594735575396E-07	2938986.75	5.04401759826578E-05
2	571	118.925048699743	0.857391357421875	0.85723876953125	2.5665283203125E-07	2.20012765339561E-07	3340071.25	5.04679592268076E-05
2	572	119.025756699489	0.847320556640625	0.8477783203125	2.1697998046875E-07	1.83950916721187E-07	3907173.25	5.04918098158669E-05
2	573	119.126464699235	0.837249755859375	0.83709716796875	1.77917480468751E-07	1.48934205412843E-07	4704974.5	5.05116913700476E-05
2	574	119.22717269898	0.827178955078125	0.8282470703125	1.44042968749999E-07	1.1930316645703E-07	5750000	5.05279058415908E-05
2	575	119.327880698726	0.817108154296875	0.8172607421875	1.16882324218751E-07	9.55233332433636E-08	6992167.5	5.05410425830632E-05
2	576	119.428588698472	0.807037353515625	0.80718994140625	9.85717773437506E-08	7.95661421193472E-08	8188854.5	5.0551891035866E-05
2	577	119.529296698218	0.796966552734375	0.79742431640625	8.88061523437497E-08	7.08161849161115E-08	8979381	5.05613279528916E-05
2	578	119.630004697963	0.786895751953125	0.7867431640625	8.60595703124994E-08	6.77067717447244E-08	9141845	5.05701318616048E-05
2	579	119.730712697709	0.776824951171875	0.77728271484375	8.78906250000006E-08	6.83158631886727E-08	8843750	5.05788921145722E-05
2	580	119.831420697455	0.766754150390625	0.7666015625	9.307861328125E-08	7.13542078756291E-08	8236065.5	5.0588005251484E-05
2	581	119.9321286972	0.756683349609375	0.75653076171875	9.94873046874997E-08	7.52652056235092E-08	7604294.5	5.05977004650049E-05
2	582	120.032836696946	0.746612548828125	0.746490478515625	1.04675292968751E-07	7.81391022997013E-08	7131487.5	5.06079813931137E-05
2	583	120.133544696692	0.736541748046875	0.7364501953125	1.0955810546875E-07	8.06840816380827E-08	6722006	5.06187680002768E-05
2	584	120.234252696438	0.726470947265625	0.72637939453125	1.129150390625E-07	8.20191559114392E-08	6432973	5.06299729750026E-05
2	585	120.334960696183	0.716400146484375	0.716339111328125	1.15966796875E-07	8.30715478628008E-08	6177105.5	5.06414980918635E-05
2	586	120.435668695929	0.706329345703125	0.706207275390625	1.177978515625E-07	8.3189696908903E-08	5995078	5.06532669533044E-05
2	587	120.536376695675	0.696258544921875	0.696197509765625	1.1871337890625E-07	8.26479578108774E-08	5864524.5	5.06651776959188E-05
2	588	120.637084695421	0.686187744140625	0.686126708984375	1.202392578125E-07	8.24993620085479E-08	5706345.5	5.06772084918339E-05
2	589	120.737792695166	0.676116943359375	0.676025390625	1.21154785156249E-07	8.19037069277329E-08	5579849	5.06893629790284E-05
2	590	120.838500694912	0.666046142578125	0.66595458984375	1.21154785156249E-07	8.06835842581677E-08	5496725.5	5.07015647599474E-05
2	591	120.939208694658	0.655975341796875	0.65594482421875	1.2176513671875E-07	7.98712136429458E-08	5386967.5	5.07137956446968E-05
2	592	121.039916694404	0.645904541015625	0.6458740234375	1.2237548828125E-07	7.90391467830887E-08	5277805.5	5.07260920130648E-05
2	593	121.140624694149	0.635833740234375	0.635833740234375	1.22680664062499E-07	7.80045041892663E-08	5182836	5.07384320371784E-05
2	594	121.241332693895	0.625762939453125	0.625732421875	1.23291015625E-07	7.71471846405802E-08	5075247.5	5.07508157170378E-05
2	595	121.342040693641	0.615692138671875	0.61566162109375	1.239013671875E-07	7.62813101573556E-08	4968966	5.07632648805156E-05
2	596	121.442748693387	0.605621337890625	0.6055908203125	1.2481689453125E-07	7.55879625558009E-08	4851834	5.07757868035696E-05
2	597	121.543456693132	0.595550537109375	0.595550537109375	1.26037597656251E-07	7.50617559219791E-08	4725182	5.07884178659879E-05
2	598	121.644164692878	0.585479736328125	0.585479736328125	1.26953125E-07	7.4328482924102E-08	4611779	5.08011580677703E-05
2	599	121.744872692624	0.575408935546875	0.575408935546875	1.27563476562501E-07	7.34011607050888E-08	4510766	5.08139746671077E-05
2	600	121.845580692369	0.565338134765625	0.5653076171875	1.2847900390625E-07	7.26301578879429E-08	4400000	5.0826867664E-05
2	601	121.946288692115	0.555267333984375	0.55523681640625	1.2969970703125E-07	7.20140462817653E-08	4280941.5	5.08398661622778E-05
2	602	122.046996691861	0.545196533203125	0.54510498046875	1.30310058593749E-07	7.10326588659882E-08	4183138.25	5.08529592480045E-05
2	603	122.147704691607	0.535125732421875	0.535064697265625	1.312255859375E-07	7.02141704778114E-08	4077442.25	5.08661287312862E-05
2	604	122.248412691352	0.525054931640625	0.5250244140625	1.31835937499999E-07	6.9217080067574E-08	3982407.5	5.08793746121228E-05
2	605	122.349120691098	0.514984130859375	0.5150146484375	1.324462890625E-07	6.82117757833112E-08	3888479.25	5.08926823385991E-05
2	606	122.449828690844	0.504913330078125	0.504913330078125	1.33056640625E-07	6.7182064356075E-08	3794725	5.09060519107152E-05
2	607	122.55053669059	0.494842529296875	0.494842529296875	1.33361816406249E-07	6.59930918800455E-08	3710526.5	5.09194651385769E-05
2	608	122.651244690335	0.484771728515625	0.484710693359375	1.3427734375E-07	6.50856648576337E-08	3609772.75	5.09329438500572E-05
2	609	122.751952690081	0.474700927734375	0.474700927734375	1.3427734375E-07	6.37415809023878E-08	3535227.25	5.09464662172832E-05
2	610	122.852660689827	0.464630126953125	0.464630126953125	1.3427734375E-07	6.23892972839712E-08	3460227.25	5.09599885845091E-05
2	611	122.953368689573	0.454559326171875	0.454559326171875	1.3458251953125E-07	6.11757400292845E-08	3377551	5.09735291416291E-05
2	612	123.054076689318	0.444488525390625	0.444488525390625	1.3397216796875E-07	5.95490909915952E-08	3317767.75	5.09870515088551E-05
2	613	123.154784689064	0.434417724609375	0.4344482421875	1.3397216796875E-07	5.82039731966688E-08	3242824.75	5.10005411342718E-05
2	614	123.25549268881	0.424346923828125	0.424346923828125	1.33056640625E-07	5.64621736032223E-08	3189220.5	5.10139871039428E-05
2	615	123.356200688556	0.414276123046875	0.414276123046875	1.324462890625E-07	5.48693357416141E-08	3127880.25	5.10273566760588E-05
2	616	123.456908688301	0.404205322265625	0.4041748046875	1.32141113281251E-07	5.34081081582372E-08	3058660.5	5.10406789544504E-05
2	617	123.557616688047	0.394134521484375	0.39410400390625	1.312255859375E-07	5.17165261726404E-08	3003256	5.10539430251811E-05
2	618	123.658324687793	0.384063720703125	0.384063720703125	1.29089355468751E-07	4.95785386078751E-08	2975177.25	5.1067050662823E-05
2	619	123.759032687538	0.373992919921875	0.374053955078125	1.29089355468751E-07	4.82863846684722E-08	2897636	5.10800491611008E-05
2	620	123.859740687284	0.363922119140625	0.3638916015625	1.28173828125E-07	4.66413787592046E-08	2839047.75	5.10930040036328E-05
2	621	123.96044868703	0.353851318359375	0.3538818359375	1.26953125E-07	4.49264057067467E-08	2787500	5.11058497068007E-05
2	622	124.061156686776	0.343780517578125	0.343780517578125	1.263427734375E-07	4.34341842492358E-08	2721014.5	5.11186044604983E-05
2	623	124.161864686521	0.333709716796875	0.333709716796875	1.251220703125E-07	4.17544505637579E-08	2667073.25	5.11312682647258E-05
2	624	124.262572686267	0.323638916015625	0.323638916015625	1.24206542968749E-07	4.0198067097208E-08	2605651.25	5.11438229295891E-05
2	625	124.363280686013	0.313568115234375	0.3135986328125	1.22985839843751E-07	3.85681921954983E-08	2549876	5.11562684550881E-05
2	626	124.463988685759	0.303497314453125	0.303466796875	1.2054443359375E-07	3.65812304892188E-08	2517468.5	5.11685320816468E-05
2	627	124.564696685504	0.293426513671875	0.293365478515625	1.1932373046875E-07	3.50054634168373E-08	2458567.75	5.11806101712864E-05
2	628	124.66540468525	0.283355712890625	0.283355712890625	1.1749267578125E-07	3.32922205359409E-08	2411688.25	5.1192535465816E-05
2	629	124.766112684996	0.273284912109375	0.27325439453125	1.15966796875E-07	3.16884367634884E-08	2356316	5.12042897753417E-05
2	630	124.866820684742	0.263214111328125	0.263214111328125	1.1444091796875E-07	3.01224645227194E-08	2300000	5.12158912897576E-05
2	631	124.967528684487	0.253143310546875	0.253143310546875	1.116943359375E-07	2.82746732693795E-08	2266393.5	5.12272781634238E-05
2	632	125.068236684233	0.243072509765625	0.243072509765625	1.08642578125E-07	2.64080224354757E-08	2237359.75	5.12383739987854E-05
2	633	125.168944683979	0.233001708984375	0.2330322265625	1.06201171875001E-07	2.47482958570799E-08	2194253	5.12491933477577E-05
2	634	125.269652683725	0.222930908203125	0.222930908203125	1.03149414062501E-07	2.29951915287074E-08	2161242.75	5.12597362103406E-05
2	635	125.37036068347	0.212860107421875	0.212860107421875	9.918212890625E-08	2.11119175475005E-08	2146154	5.12699225510005E-05
2	636	125.471068683216	0.202789306640625	0.20281982421875	9.52148437499995E-08	1.93114573221465E-08	2130128.25	5.12797123519704E-05
2	637	125.571776682962	0.192718505859375	0.1927490234375	8.97216796875003E-08	1.72937664189021E-08	2148299.25	5.12890219397377E-05
2	638	125.672484682707	0.182647705078125	0.182708740234375	8.392333984375E-08	1.53335282249145E-08	2177091	5.129776764079E-05
2	639	125.773192682453	0.172576904296875	0.17266845703125	7.69042968749994E-08	1.32789459428295E-08	2245238.25	5.13058657816146E-05
2	640	125.873900682199	0.162506103515625	0.16253662109375	6.80541992187506E-08	1.10612994319581E-08	2388340.75	5.13131635671016E-05
2	641	125.974608681945	0.152435302734375	0.15240478515625	5.73730468750006E-08	8.74392647176592E-09	2656383	5.13194790983107E-05
2	642	126.07531668169	0.142364501953125	0.1424560546875	4.2724609375E-08	6.08637895638253E-09	3334285.75	5.13245213369373E-05
2	643	126.176024681436	0.132293701171875	0.132354736328125	2.38037109375006E-08	3.1505338338178E-09	5560256.5	5.13278719154187E-05
2	644	126.276732681182	0.122222900390625	0.12225341796875	-2.13623046874945E-09	-2.61161453574132E-10	-57228576	5.13289633090608E-05
2	645	126.377440680928	0.112152099609375	0.112213134765625	-3.75366210937506E-08	-4.21210177847797E-09	-2989431	5.13269660586957E-05
2	646	126.478148680673	0.102081298828125	0.102081298828125	-8.57543945312497E-08	-8.75392025534438E-09	-1190391.5	5.1320756028872E-05
2	647	126.578856680419	0.092010498046875	0.092071533203125	-1.51977539062501E-07	-1.39928042486304E-08	-605823.3125	5.13087870785967E-05
2	648	126.679564680165	0.081939697265625	0.082000732421875	-2.423095703125E-07	-1.98695619957334E-08	-338413.09375	5.12889309902675E-05
2	649	126.780272679911	0.071868896484375	0.0718994140625	-3.6285400390625E-07	-2.60889905234762E-08	-198149.703125	5.12584592797793E-05
2	650	126.880980679656	0.061798095703125	0.061920166015625	-5.206298828125E-07	-3.22374908989786E-08	-118933.171875	5.12139704369474E-05
2	651	126.981688679402	0.051727294921875	0.0517578125	-7.19299316406249E-07	-3.72293591510697E-08	-71955.875	5.11515354446601E-05
2	652	127.082396679148	0.041656494140625	0.041754150390625	-9.552001953125E-07	-3.98835737769332E-08	-43712.45703125	5.10672180098481E-05
2	653	127.183104678894	0.031585693359375	0.0316925048828125	-1.219482421875E-06	-3.86484515502161E-08	-25988.48828125	5.09577148477547E-05
2	654	127.283812678639	0.021514892578125	0.02159423828125	-1.4923095703125E-06	-3.22252837747783E-08	-14470.34765625	5.08211669512093E-05
2	655	127.384520678385	0.011444091796875	0.011517333984375	-1.74774169921875E-06	-2.01293239854294E-08	-6589.837890625	5.06580145156477E-05
2	656	127.485228678131	0.001373291015625	0.00148620605468749	-1.96044921875E-06	-2.91363155824342E-09	-758.094665527344	5.04712952533737E-05
2	657	127.585936677876	-0.008697509765625	-0.00858459472656251	-2.11029052734375E-06	1.81159887091553E-08	4067.96801757813	5.02663169754669E-05
2	658	127.686644677622	-0.018768310546875	-0.0186798095703125	-2.19146728515625E-06	4.09361895492566E-08	8523.8818359375	5.00497044413351E-05
2	659	127.787352677368	-0.028839111328125	-0.028717041015625	-2.20977783203125E-06	6.34582733027855E-08	12995.443359375	4.98280860483646E-05
2	660	127.888060677114	-0.038909912109375	-0.03880615234375	-2.178955078125E-06	8.45568663976337E-08	17809.5234375	4.9607093387749E-05
2	661	127.988768676859	-0.048980712890625	-0.0488189697265625	-2.117919921875E-06	1.03394661721268E-07	23050.431640625	4.93907282361761E-05
2	662	128.089476676605	-0.059051513671875	-0.05889892578125	-2.0404052734375E-06	1.20177674034494E-07	28866.2890625	4.91813407279551E-05
2	663	128.190184676351	-0.069122314453125	-0.069061279296875	-1.95831298828125E-06	1.3524359587791E-07	35265.703125	4.8979989514919E-05
2	664	128.290892676097	-0.079193115234375	-0.07916259765625	-1.87774658203125E-06	1.48647288256143E-07	42158.296875	4.87868273921777E-05
2	665	128.391600675842	-0.089263916015625	-0.08917236328125	-1.80389404296875E-06	1.6085748200112E-07	49433.26171875	4.86014432681259E-05
2	666	128.492308675588	-0.099334716796875	-0.0992431640625	-1.73736572265625E-06	1.72421664501599E-07	57122.78515625	4.84231277368963E-05
2	667	128.593016675334	-0.109405517578125	-0.109283447265625	-1.6790771484375E-06	1.83495330929873E-07	65085.42578125	4.82510949950665E-05
2	668	128.69372467508	-0.119476318359375	-0.119384765625	-1.62841796875E-06	1.94408301013027E-07	73313.34375	4.80845483252779E-05
2	669	128.794432674825	-0.129547119140625	-0.129486083984375	-1.58477783203125E-06	2.05206674763758E-07	81706.140625	4.79227528558113E-05
2	670	128.895140674571	-0.139617919921875	-0.139495849609375	-1.54754638671875E-06	2.1587629817077E-07	90140.0078125	4.77650282846298E-05
2	671	128.995848674317	-0.149688720703125	-0.14959716796875	-1.51641845703125E-06	2.26851895490654E-07	98651.6484375	4.76107452413999E-05
2	672	129.096556674063	-0.159759521484375	-0.159637451171875	-1.49078369140625E-06	2.37984906448219E-07	107082.90625	4.74593216495123E-05
2	673	129.197264673808	-0.169830322265625	-0.169708251953125	-1.4691162109375E-06	2.49321146839065E-07	115517.2421875	4.73102772957645E-05
2	674	129.297972673554	-0.179901123046875	-0.17974853515625	-1.4520263671875E-06	2.60999598822309E-07	123791.5078125	4.71631865366362E-05
2	675	129.3986806733	-0.189971923828125	-0.1898193359375	-1.43829345703125E-06	2.73015899665552E-07	131975.390625	4.70176455564797E-05
2	676	129.499388673045	-0.200042724609375	-0.19989013671875	-1.42913818359375E-06	2.8567060894602E-07	139867.609375	4.68732614535838E-05
2	677	129.600096672791	-0.189971923828125	-0.189788818359375	-1.2646484375E-06	2.40016134966936E-07	150072.390625	4.67376157757826E-05
