Potential - Start -0.2 V, Upper Vertex 1.5 V, Lower Vertex -0.2 V, Stop -0.19 V; Scan - # end cross 5, Rate 0.1 Vps, Step 0.01 V 
Scan	Index	Time (s)	Potential applied (V)	WE(1).Potential (V)	WE(1).Current (A)	WE(1).Power (W)	WE(1).Resistance (Ω)	WE(1).Charge (C)
1	1	63.7495338390479	-0.189971923828125	-0.189849853515625	-2.642822265625E-07	5.01739414460189E-08	718360.3125	0
1	2	63.8502418387936	-0.179901123046875	-0.179718017578125	-2.3162841796875E-07	4.16277963211087E-08	775889.375	-2.49710829791638E-08
1	3	63.9509498385394	-0.169830322265625	-0.169647216796875	-2.044677734375E-07	3.46873889611743E-08	829701.5	-4.69302712247099E-08
1	4	64.0516578382851	-0.159759521484375	-0.15960693359375	-1.8157958984375E-07	2.89813595344413E-08	878991.625	-6.63692958369211E-08
1	5	64.1523658380308	-0.149688720703125	-0.1495361328125	-1.6021728515625E-07	2.39582735872546E-08	933333.375	-8.35801401422032E-08
1	6	64.2530738377766	-0.139617919921875	-0.139495849609375	-1.4007568359375E-07	1.95399767477511E-08	995860.5625	-9.87010864150761E-08
1	7	64.3537818375223	-0.129547119140625	-0.12945556640625	-1.19934082031251E-07	1.5526135044297E-08	1079389.25	-1.11793625023893E-07
1	8	64.4544898372681	-0.119476318359375	-0.119415283203125	-1.00097656250001E-07	1.19531895492742E-08	1192987.875	-1.22873103691745E-07
1	9	64.5551978370138	-0.109405517578125	-0.109375	-7.84301757812495E-08	8.57830073641708E-09	1394552.5	-1.31862691432616E-07
1	10	64.6559058367595	-0.099334716796875	-0.099212646484375	-5.40161132812494E-08	5.35908162291321E-09	1836723.25	-1.38531888183024E-07
1	11	64.7566138365053	-0.089263916015625	-0.08917236328125	-2.62451171874997E-08	2.34033903367958E-09	3397674.5	-1.425733699989E-07
1	12	64.857321836251	-0.079193115234375	-0.0791015625	9.46044921874972E-09	-7.48336337341726E-10	-8361290	-1.43418546372232E-07
1	13	64.9580298359967	-0.069122314453125	-0.069091796875	5.55419921874995E-08	-3.83749609866868E-09	-1243956	-1.40145402838243E-07
1	14	65.0587378357425	-0.059051513671875	-0.05902099609375	1.141357421875E-07	-6.73640476733794E-09	-517112.3125	-1.31601453290386E-07
1	15	65.1594458354882	-0.048980712890625	-0.0488525390625	1.94091796875E-07	-9.48187750537954E-09	-251698.125	-1.16080961731768E-07
1	16	65.260153835234	-0.038909912109375	-0.03875732421875	3.0059814453125E-07	-1.16503802161105E-08	-128934.0078125	-9.11713442519613E-08
1	17	65.3608618349797	-0.028839111328125	-0.02869873046875	4.40063476562499E-07	-1.26292629687441E-08	-65214.98046875	-5.38760716040088E-08
1	18	65.4615698347254	-0.018768310546875	-0.0186248779296875	6.1798095703125E-07	-1.15098197639441E-08	-30138.271484375	-5.99302996118212E-10
1	19	65.5622778344712	-0.008697509765625	-0.00861511230468751	8.343505859375E-07	-7.18802350974102E-09	-10325.5302734375	7.25313995530996E-08
1	20	65.6629858342169	0.001373291015625	0.0014801025390625	1.082763671875E-06	1.60260127390899E-09	1366.96728515625	1.69065771160604E-07
1	21	65.7636938339626	0.011444091796875	0.0115447998046875	1.34735107421875E-06	1.55548978142406E-08	8568.5166015625	2.91431774712692E-07
1	22	65.8644018337084	0.021514892578125	0.0216400146484375	1.6033935546875E-06	3.46974609044537E-08	13496.3828125	4.40013565139452E-07
1	23	65.9651098334541	0.031585693359375	0.0316436767578125	1.82525634765625E-06	5.77578198601714E-08	17336.56640625	6.1265978956726E-07
1	24	66.0658178331998	0.041656494140625	0.0417877197265625	1.9921875E-06	8.32489703839201E-08	20975.798828125	8.04883370619791E-07
1	25	66.1665258329456	0.051727294921875	0.0517578125	2.09381103515625E-06	1.08371075668856E-07	24719.4296875	1.01062971680221E-06
1	26	66.2672338326913	0.061798095703125	0.061859130859375	2.13104248046875E-06	1.31824435811723E-07	29027.638671875	1.22336803087819E-06
1	27	66.3679418324371	0.071868896484375	0.0718994140625	2.11669921875E-06	1.52189429059035E-07	33967.70703125	1.43725878842815E-06
1	28	66.4686498321828	0.081939697265625	0.08197021484375	2.06817626953125E-06	1.69528846072353E-07	39634.05859375	1.64798393598176E-06
1	29	66.5693578319285	0.092010498046875	0.09210205078125	1.9989013671875E-06	1.84102916023221E-07	46076.3359375	1.85277758646407E-06
1	30	66.6700658316743	0.102081298828125	0.10211181640625	1.92138671875E-06	1.96196282331584E-07	53144.85546875	2.05017977350508E-06
1	31	66.77077383142	0.112152099609375	0.112091064453125	1.84326171875E-06	2.06613165687486E-07	60811.26171875	2.23974484470091E-06
1	32	66.8714818311657	0.122222900390625	0.122283935546875	1.767578125E-06	2.16146403886341E-07	69181.6328125	2.42156511376379E-06
1	33	66.9721898309115	0.132293701171875	0.132293701171875	1.69769287109375E-06	2.24594060682648E-07	77925.578125	2.59605531027773E-06
1	34	67.0728978306572	0.142364501953125	0.142425537109375	1.63421630859375E-06	2.32754118201228E-07	87152.1953125	2.76383025266114E-06
1	35	67.1736058304029	0.152435302734375	0.1524658203125	1.5771484375E-06	2.40461218936616E-07	96671.828125	2.92553545477858E-06
1	36	67.2743138301487	0.162506103515625	0.1624755859375	1.52618408203125E-06	2.47967648192571E-07	106458.7109375	3.08180051433737E-06
1	37	67.3750218298944	0.172576904296875	0.17254638671875	1.48101806640625E-06	2.55544307492528E-07	116505.2578125	3.23322524309333E-06
1	38	67.4757298296402	0.182647705078125	0.18267822265625	1.44012451171875E-06	2.63079385831588E-07	126848.9140625	3.38031645696901E-06
1	39	67.5764378293859	0.192718505859375	0.1927490234375	1.4044189453125E-06	2.70700354576547E-07	137244.6875	3.52355050381448E-06
1	40	67.6771458291316	0.202789306640625	0.20281982421875	1.3720703125E-06	2.78283067700613E-07	147820.28125	3.66335780199734E-06
1	41	67.7778538288774	0.212860107421875	0.212921142578125	1.34307861328125E-06	2.85969832702904E-07	158532.15625	3.80007645617297E-06
1	42	67.8785618286231	0.222930908203125	0.22296142578125	1.3165283203125E-06	2.93535009632251E-07	169355.59375	3.93399841414066E-06
1	43	67.9792698283688	0.233001708984375	0.23297119140625	1.29241943359375E-06	3.01096491739372E-07	180259.75	4.06536946684355E-06
1	44	68.0799778281146	0.243072509765625	0.24310302734375	1.270751953125E-06	3.08923631564539E-07	191306.4375	4.19443540522479E-06
1	45	68.1806858278603	0.253143310546875	0.253143310546875	1.251220703125E-06	3.1673812372901E-07	202317.09375	4.3214267861913E-06
1	46	68.2813938276061	0.263214111328125	0.26318359375	1.2335205078125E-06	3.24642343230153E-07	213359.71875	4.44654324383009E-06
1	47	68.3821018273518	0.273284912109375	0.2733154296875	1.21734619140625E-06	3.3271948041147E-07	224517.4375	4.56995439890306E-06
1	48	68.4828098270975	0.283355712890625	0.2833251953125	1.20330810546875E-06	3.40927499564714E-07	235455.234375	4.69184396933997E-06
1	49	68.5835178268433	0.293426513671875	0.293426513671875	1.18927001953125E-06	3.48963340002229E-07	246728.265625	4.81231973026297E-06
1	50	68.684225826589	0.303497314453125	0.303466796875	1.1767578125E-06	3.57106927140194E-07	257883.828125	4.93145853397436E-06
1	51	68.7849338263347	0.313568115234375	0.313507080078125	1.16607666015625E-06	3.6557329963216E-07	268856.3125	5.04942954648868E-06
1	52	68.8856418260805	0.323638916015625	0.32366943359375	1.15570068359375E-06	3.7406496744552E-07	280063.40625	5.16634054292808E-06
1	53	68.9863498258262	0.333709716796875	0.33367919921875	1.1468505859375E-06	3.82680156008064E-07	290952.65625	5.28228338225745E-06
1	54	69.0870578255719	0.343780517578125	0.343780517578125	1.13861083984375E-06	3.91432223523225E-07	301929.78125	5.39736538485158E-06
1	55	69.1877658253177	0.353851318359375	0.3538818359375	1.1309814453125E-06	4.00233801656213E-07	312898	5.51164839635021E-06
1	56	69.2884738250634	0.363922119140625	0.363983154296875	1.12457275390625E-06	4.09325508599068E-07	323663.53125	5.62522473046556E-06
1	57	69.3891818248092	0.373992919921875	0.373992919921875	1.11846923828125E-06	4.1829954966488E-07	334379.28125	5.73817078475258E-06
1	58	69.4898898245549	0.384063720703125	0.384033203125	1.11297607421875E-06	4.27419763582293E-07	345050.71875	5.85053294344107E-06
1	59	69.5905978243006	0.394134521484375	0.39410400390625	1.1090087890625E-06	4.37064784364338E-07	355366	5.96241852690582E-06
1	60	69.6913058240464	0.404205322265625	0.404266357421875	1.104736328125E-06	4.4660771436611E-07	365939.25	6.07388938078657E-06
1	61	69.7920138237921	0.414276123046875	0.41424560546875	1.1016845703125E-06	4.56367985179895E-07	376011.09375	6.1849918893131E-06
1	62	69.8927218235378	0.424346923828125	0.424346923828125	1.0986328125E-06	4.66201441895464E-07	386250.03125	6.29578653388307E-06
1	63	69.9934298232836	0.434417724609375	0.4344482421875	1.0968017578125E-06	4.7650357259954E-07	396104.625	6.40633561488357E-06
1	64	70.0941378230293	0.444488525390625	0.4444580078125	1.094970703125E-06	4.86668511712196E-07	405908.59375	6.51670006845961E-06
1	65	70.1948458227751	0.454559326171875	0.454559326171875	1.0943603515625E-06	4.97451708270091E-07	415365.34375	6.62694128550356E-06
1	66	70.2955538225208	0.464630126953125	0.464569091796875	1.09405517578125E-06	5.08264236032119E-07	424630.40625	6.73713702781242E-06
1	67	70.3962618222665	0.474700927734375	0.474700927734375	1.09405517578125E-06	5.19348986927071E-07	433891.21875	6.847316853964E-06
1	68	70.4969698220123	0.484771728515625	0.484771728515625	1.09466552734375E-06	5.30662930486869E-07	442849.15625	6.95752805768279E-06
1	69	70.597677821758	0.494842529296875	0.49481201171875	1.09649658203125E-06	5.42559689620248E-07	451266.34375	7.06786158843897E-06
1	70	70.6983858215037	0.504913330078125	0.504913330078125	1.09893798828125E-06	5.54868449853529E-07	459455.6875	7.17841066943947E-06
1	71	70.7990938212495	0.514984130859375	0.514984130859375	1.10137939453125E-06	5.67192898870417E-07	467581.0625	7.28920531400945E-06
1	72	70.8998018209952	0.525054931640625	0.5250244140625	1.104736328125E-06	5.8001353409054E-07	475248.65625	7.4002919063787E-06
1	73	71.0005098207409	0.535125732421875	0.53515625	1.1090087890625E-06	5.93492927691841E-07	482553.6875	7.51176321500679E-06
1	74	71.1012178204867	0.545196533203125	0.545196533203125	1.11480712890625E-06	6.07788990691915E-07	489050.09375	7.62374111218378E-06
1	75	71.2019258202324	0.555267333984375	0.55523681640625	1.12152099609375E-06	6.2270976286527E-07	495074.84375	7.73634928918909E-06
1	76	71.3026338199782	0.565338134765625	0.565338134765625	1.129150390625E-06	6.38351764337131E-07	500675.65625	7.84967960498761E-06
1	77	71.4033418197239	0.575408935546875	0.575347900390625	1.13983154296875E-06	6.55799681226199E-07	504765.75	7.96393214841373E-06
1	78	71.5040498194696	0.585479736328125	0.585479736328125	1.15264892578125E-06	6.74852572046802E-07	507942.8125	8.07936703495216E-06
1	79	71.6047578192154	0.595550537109375	0.5955810546875	1.16973876953125E-06	6.96674248956697E-07	509157.3125	8.19630895421142E-06
1	80	71.7054658189611	0.605621337890625	0.605560302734375	1.19110107421875E-06	7.21283527127525E-07	508403.78125	8.31518627819605E-06
1	81	71.8061738187068	0.615692138671875	0.615692138671875	1.2188720703125E-06	7.50449942188425E-07	505132.71875	8.43653833726421E-06
1	82	71.9068818184526	0.625762939453125	0.62579345703125	1.25579833984375E-06	7.85870383879228E-07	498323.21875	8.56114820635412E-06
1	83	72.0075898181983	0.635833740234375	0.635772705078125	1.30279541015625E-06	8.28281713438628E-07	488006.59375	8.68998358782846E-06
1	84	72.108297817944	0.645904541015625	0.645843505859375	1.36322021484375E-06	8.80426910043752E-07	473763.15625	8.82422773429425E-06
1	85	72.2090058176898	0.655975341796875	0.6558837890625	1.434326171875E-06	9.4075124934534E-07	457276.625	8.96509573067306E-06
1	86	72.3097138174355	0.666046142578125	0.665985107421875	1.51214599609375E-06	1.00706677130802E-06	440423.8125	9.11346251086798E-06
1	87	72.4104218171813	0.676116943359375	0.676055908203125	1.591796875E-06	1.07614368971554E-06	424712.4375	9.26975826587295E-06
1	88	72.511129816927	0.686187744140625	0.68609619140625	1.6632080078125E-06	1.14112060600746E-06	412513.78125	9.43366103456356E-06
1	89	72.6118378166727	0.696258544921875	0.696197509765625	1.72149658203125E-06	1.19850164992386E-06	404414.125	9.60409397521289E-06
1	90	72.7125458164185	0.706329345703125	0.706298828125	1.763916015625E-06	1.24585176308756E-06	400415.21875	9.77959825831931E-06
1	91	72.8132538161642	0.716400146484375	0.716339111328125	1.79046630859375E-06	1.28258102449763E-06	400085.21875	9.9585759016918E-06
1	92	72.9139618159099	0.726470947265625	0.72637939453125	1.80572509765625E-06	1.31164154026919E-06	402264.65625	1.01396581158042E-05
1	93	73.0146698156557	0.736541748046875	0.73638916015625	1.81610107421875E-06	1.33735716190131E-06	405478.0625	1.03220318123931E-05
1	94	73.1153778154014	0.746612548828125	0.74652099609375	1.8280029296875E-06	1.36464245770185E-06	408380.65625	1.05055269159493E-05
1	95	73.2160858151472	0.756683349609375	0.7568359375	1.84814453125E-06	1.39874214255542E-06	409511.21875	1.06906354631064E-05
1	96	73.3167938148929	0.766754150390625	0.7666015625	1.88262939453125E-06	1.44322666528751E-06	407197.28125	1.08784952317365E-05
1	97	73.4175018146386	0.776824951171875	0.7769775390625	1.939697265625E-06	1.50710127400089E-06	400566.375	1.1070964319515E-05
1	98	73.5182098143844	0.786895751953125	0.78704833984375	2.0257568359375E-06	1.59436854119122E-06	388520.625	1.12706411528052E-05
1	99	73.6189178141301	0.796966552734375	0.79742431640625	2.147216796875E-06	1.71224280620663E-06	371375.78125	1.1480767170724E-05
1	100	73.7196258138758	0.807037353515625	0.80657958984375	2.30804443359375E-06	1.86162162663095E-06	349464.5	1.17051076813368E-05
1	101	73.8203338136216	0.817108154296875	0.8172607421875	2.50518798828125E-06	2.04739171749679E-06	326227.3125	1.19474725579494E-05
1	102	73.9210418133673	0.827178955078125	0.82733154296875	2.73345947265625E-06	2.26147722059977E-06	302668.3125	1.22112596727675E-05
1	103	74.021749813113	0.837249755859375	0.83740234375	2.97210693359375E-06	2.48884930442728E-06	281753.78125	1.24985581351211E-05
1	104	74.1224578128588	0.847320556640625	0.84686279296875	3.20281982421875E-06	2.71234875981463E-06	264411.625	1.28094898173003E-05
1	105	74.2231658126045	0.857391357421875	0.85723876953125	3.40057373046875E-06	2.91510355054925E-06	252086.515625	1.31419974422897E-05
1	106	74.3238738123503	0.867462158203125	0.8673095703125	3.548583984375E-06	3.0777207484789E-06	244410.046875	1.34919155243551E-05
1	107	74.424581812096	0.877532958984375	0.87799072265625	3.63616943359375E-06	3.19252308145224E-06	241460.34375	1.38536961458158E-05
1	108	74.5252898118417	0.887603759765625	0.887451171875	3.66790771484375E-06	3.25508881360292E-06	241950.25	1.4221485798771E-05
1	109	74.6259978115875	0.897674560546875	0.89752197265625	3.65447998046875E-06	3.27997599924856E-06	245594.984375	1.45901967698592E-05
1	110	74.7267058113332	0.907745361328125	0.90789794921875	3.61236572265625E-06	3.27965926771867E-06	251330.578125	1.49561119542341E-05
1	111	74.8274138110789	0.917816162109375	0.91796875	3.555908203125E-06	3.26421240970376E-06	258153.125	1.53170640260214E-05
1	112	74.9281218108247	0.927886962890625	0.92803955078125	3.49853515625E-06	3.2467789878865E-06	265265.1875	1.5672281733714E-05
1	113	75.0288298105704	0.937957763671875	0.9381103515625	3.44879150390625E-06	3.23534686685889E-06	272011.34375	1.60221079568146E-05
1	114	75.1295378103162	0.948028564453125	0.94818115234375	3.414306640625E-06	3.23738117913308E-06	277708.28125	1.6367692296626E-05
1	115	75.2302458100619	0.958099365234375	0.9576416015625	3.4002685546875E-06	3.25623864227964E-06	281637.0625	1.67108337336686E-05
1	116	75.3309538098076	0.968170166015625	0.968017578125	3.411865234375E-06	3.30274542648112E-06	283720.9375	1.70538514794316E-05
1	117	75.4316618095534	0.978240966796875	0.9783935546875	3.44940185546875E-06	3.37487244905788E-06	283641.53125	1.73993448697729E-05
1	118	75.5323698092991	0.988311767578125	0.9881591796875	3.5101318359375E-06	3.46856904798187E-06	281516.25	1.77497840923024E-05
1	119	75.6330778090448	0.998382568359375	0.99822998046875	3.58612060546875E-06	3.57977296516765E-06	278359.28125	1.81071100087138E-05
1	120	75.7337858087906	1.00845336914063	1.00799560546875	3.665771484375E-06	3.69508143194253E-06	274975.03125	1.84722703124862E-05
1	121	75.8344938085363	1.01852416992188	1.0186767578125	3.73504638671875E-06	3.80480469175382E-06	272734.71875	1.88449321285589E-05
1	122	75.935201808282	1.02859497070313	1.02813720703125	3.7823486328125E-06	3.88877333534765E-06	271825.09375	1.92234620044474E-05
1	123	76.0359098080278	1.03866577148438	1.03851318359375	3.800048828125E-06	3.94640073864139E-06	273289.4375	1.96052660612622E-05
1	124	76.1366178077735	1.04873657226563	1.0479736328125	3.78936767578125E-06	3.97115718442365E-06	276556.34375	1.99874248210108E-05
1	125	76.2373258075193	1.05880737304688	1.05865478515625	3.75701904296875E-06	3.97738585888874E-06	281780.53125	2.03674153453903E-05
1	126	76.338033807265	1.06887817382813	1.0687255859375	3.70880126953125E-06	3.96369068766944E-06	288159.3125	2.07433495234E-05
1	127	76.4387418070107	1.07894897460938	1.0784912109375	3.65264892578125E-06	3.93934942621854E-06	295262.78125	2.11140268220333E-05
1	128	76.5394498067565	1.08901977539063	1.0888671875	3.59222412109375E-06	3.91145476896781E-06	303117.84375	2.14788360608509E-05
1	129	76.6401578065022	1.09909057617188	1.0992431640625	3.533935546875E-06	3.88465468859067E-06	311053.53125	2.1837666281499E-05
1	130	76.7408658062479	1.10916137695313	1.10931396484375	3.47930908203125E-06	3.85964631277602E-06	318831.6875	2.21908103412716E-05
1	131	76.8415738059937	1.11923217773438	1.11968994140625	3.427734375E-06	3.83799942937912E-06	326656	2.25386083911872E-05
1	132	76.9422818057394	1.12930297851563	1.1297607421875	3.3807373046875E-06	3.81942436433746E-06	334175.84375	2.28814424190205E-05
1	133	77.0429898054851	1.13937377929688	1.1395263671875	3.33892822265625E-06	3.8047965063015E-06	341285.09375	2.32198035519104E-05
1	134	77.1436978052309	1.14944458007813	1.14898681640625	3.302001953125E-06	3.79395669369842E-06	347966.71875	2.35542011068901E-05
1	135	77.2444058049766	1.15951538085938	1.15936279296875	3.2684326171875E-06	3.78929894395696E-06	354715.25	2.38850498135434E-05
1	136	77.3451138047224	1.16958618164063	1.16973876953125	3.23822021484375E-06	3.78787171939621E-06	361228.90625	2.42126861849101E-05
1	137	77.4458218044681	1.17965698242188	1.1798095703125	3.21258544921875E-06	3.79023890673125E-06	367246.125	2.45375085796695E-05
1	138	77.5465298042138	1.18972778320313	1.18988037109375	3.18939208984375E-06	3.79499488190049E-06	373074.375	2.48598735197447E-05
1	139	77.6472378039596	1.19979858398438	1.1993408203125	3.16864013671875E-06	3.80027927349147E-06	378503.34375	2.51800265687052E-05
1	140	77.7479458037053	1.20986938476563	1.209716796875	3.15093994140625E-06	3.81174481844937E-06	383922.53125	2.54982423939509E-05
1	141	77.848653803451	1.21994018554688	1.219482421875	3.13568115234375E-06	3.82390771846985E-06	388905.125	2.58147993008606E-05
1	142	77.9493618031968	1.23001098632813	1.2298583984375	3.1219482421875E-06	3.83955421057181E-06	393939.40625	2.61298955592792E-05
1	143	78.0500698029425	1.24008178710938	1.24053955078125	3.11004638671875E-06	3.85813518732903E-06	398881.375	2.64437021542108E-05
1	144	78.1507778026883	1.25015258789063	1.25030517578125	3.1005859375E-06	3.87667842005612E-06	403248.03125	2.67564319074154E-05
1	145	78.251485802434	1.26022338867188	1.2603759765625	3.0926513671875E-06	3.8979032979114E-06	407539	2.70682867267169E-05
1	146	78.3521938021797	1.27029418945313	1.26983642578125	3.0865478515625E-06	3.91941102861892E-06	411409.9375	2.73794339591404E-05
1	147	78.4529018019255	1.28036499023438	1.28021240234375	3.0816650390625E-06	3.94518565371982E-06	415428.8125	2.76900282187853E-05
1	148	78.5536098016712	1.29043579101563	1.29058837890625	3.07891845703125E-06	3.97361600334989E-06	419169.40625	2.8000238671666E-05
1	149	78.6543178014169	1.30050659179688	1.3006591796875	3.07769775390625E-06	4.00303588321549E-06	422607.84375	2.83102472167229E-05
1	150	78.7550258011627	1.31057739257813	1.3104248046875	3.07830810546875E-06	4.03389140046784E-06	425696.4375	2.86202284769388E-05
1	151	78.8557338009084	1.32064819335938	1.32080078125	3.08013916015625E-06	4.06825029131141E-06	428812.0625	2.89303297904553E-05
1	152	78.9564418006541	1.33071899414063	1.3311767578125	3.08380126953125E-06	4.10508437198587E-06	431667.5	2.92407094093505E-05
1	153	79.0571498003999	1.34078979492188	1.34063720703125	3.08868408203125E-06	4.140804776398E-06	434048.03125	2.9551518309745E-05
1	154	79.1578578001456	1.35086059570313	1.35040283203125	3.09417724609375E-06	4.17838555222261E-06	436433.59375	2.98628510790877E-05
1	155	79.2585657998914	1.36093139648438	1.36077880859375	3.101806640625E-06	4.22087259721593E-06	438705.21875	3.01748423225945E-05
1	156	79.3592737996371	1.37100219726563	1.37054443359375	3.1103515625E-06	4.26287488153321E-06	440639.75	3.04876502923435E-05
1	157	79.4599817993828	1.38107299804688	1.3812255859375	3.12164306640625E-06	4.31169337389292E-06	442467.5	3.0801456887275E-05
1	158	79.5606897991286	1.39114379882813	1.3909912109375	3.1365966796875E-06	4.36297841588384E-06	443471.5	3.11165822495241E-05
1	159	79.6613977988743	1.40121459960938	1.40045166015625	3.155517578125E-06	4.41914971816004E-06	443810.4375	3.14334174618125E-05
1	160	79.76210579862	1.41128540039063	1.41143798828125	3.1805419921875E-06	4.48913760919822E-06	443772.8125	3.17524609272368E-05
1	161	79.8628137983658	1.42135620117188	1.4215087890625	3.21136474609375E-06	4.56498310086317E-06	442649.4375	3.20743201882578E-05
1	162	79.9635217981115	1.43142700195313	1.43218994140625	3.24951171875E-06	4.65391758552869E-06	440740.0625	3.23996500810608E-05
1	163	80.0642297978573	1.44149780273438	1.44195556640625	3.2989501953125E-06	4.75693968837732E-06	437095.28125	3.27293928421568E-05
1	164	80.164937797603	1.45156860351563	1.451416015625	3.3587646484375E-06	4.87496481582639E-06	432127.9375	3.30646362272091E-05
1	165	80.2656457973487	1.46163940429688	1.4617919921875	3.4332275390625E-06	5.01866452395916E-06	425777.78125	3.3406638976885E-05
1	166	80.3663537970945	1.47171020507813	1.47186279296875	3.52264404296875E-06	5.18484876010916E-06	417829	3.37568963004742E-05
1	167	80.4670617968402	1.48178100585938	1.48162841796875	3.62640380859375E-06	5.37298274139175E-06	408566.875	3.41168779414147E-05
1	168	80.5677697965859	1.49185180664063	1.49169921875	3.74420166015625E-06	5.58522287974483E-06	398402.46875	3.44880172633566E-05
1	169	80.6684777963317	1.50192260742188	1.50177001953125	3.8726806640625E-06	5.81587573833531E-06	387785.65625	3.48715584550519E-05
1	170	80.7691857960774	1.49185180664063	1.49139404296875	3.52203369140625E-06	5.25274026585976E-06	423446.84375	3.52439128619153E-05
1	171	80.8698937958231	1.48178100585938	1.48193359375	3.26568603515625E-06	4.83952999275061E-06	453789.375	3.55857009708416E-05
1	172	80.9706017955689	1.47171020507813	1.4715576171875	3.0633544921875E-06	4.5079023038852E-06	480374.59375	3.59043915523216E-05
1	173	81.0713097953146	1.46163940429688	1.461181640625	2.8985595703125E-06	4.235321739543E-06	504106.15625	3.62045975634828E-05
1	174	81.1720177950604	1.45156860351563	1.4520263671875	2.76153564453125E-06	4.00982253268012E-06	525803.9375	3.64896077371668E-05
1	175	81.2727257948061	1.44149780273438	1.441650390625	2.64556884765625E-06	3.81398535864719E-06	544930.1875	3.67618777090684E-05
1	176	81.3734337945518	1.43142700195313	1.43096923828125	2.54791259765625E-06	3.64598440683039E-06	561624.125	3.70233901776373E-05
1	177	81.4741417942976	1.42135620117188	1.42120361328125	2.464599609375E-06	3.50269760929223E-06	576646.875	3.72757895092946E-05
1	178	81.5748497940433	1.41128540039063	1.41082763671875	2.393798828125E-06	3.37723736265616E-06	589367.6875	3.75204290321562E-05
1	179	81.675557793789	1.40121459960938	1.4007568359375	2.3321533203125E-06	3.26677968587319E-06	600628.125	3.77584001398645E-05
1	180	81.7762657935348	1.39114379882813	1.39129638671875	2.27996826171875E-06	3.17211151923402E-06	610226.25	3.79906377929728E-05
1	181	81.8769737932805	1.38107299804688	1.3812255859375	2.2357177734375E-06	3.08803078041819E-06	617799.625	3.82180223823525E-05
1	182	81.9776817930262	1.37100219726563	1.370849609375	2.1978759765625E-06	3.01295744975505E-06	623715.625	3.84412705898285E-05
1	183	82.078389792772	1.36093139648438	1.361083984375	2.16583251953125E-06	2.94787992061174E-06	628434.5625	3.8661000871798E-05
1	184	82.1790977925177	1.35086059570313	1.3507080078125	2.138671875E-06	2.88872115561389E-06	631563.9375	3.88777480111457E-05
1	185	82.2798057922635	1.34078979492188	1.3409423828125	2.115478515625E-06	2.8367348932079E-06	633871.875	3.90919631172437E-05
1	186	82.3805137920092	1.33071899414063	1.33056640625	2.09564208984375E-06	2.78839092970884E-06	634920.6875	3.93040099879727E-05
1	187	82.4812217917549	1.32064819335938	1.32080078125	2.0782470703125E-06	2.74495027952071E-06	635536	3.9514183299616E-05
1	188	82.5819297915007	1.31057739257813	1.31103515625	2.06298828125E-06	2.7046501145378E-06	635503	3.97227086068597E-05
1	189	82.6826377912464	1.30050659179688	1.30035400390625	2.0489501953125E-06	2.66436040874396E-06	634644.0625	3.99297605326865E-05
1	190	82.7833457909921	1.29043579101563	1.290283203125	2.0367431640625E-06	2.62797539107851E-06	633503.1875	4.01354918722063E-05
1	191	82.8840537907379	1.28036499023438	1.28021240234375	2.025146484375E-06	2.59261742030503E-06	632157.9375	4.03400263166986E-05
1	192	82.9847617904836	1.27029418945313	1.27044677734375	2.01446533203125E-06	2.5592710244382E-06	630662.0625	4.05434366257396E-05
1	193	83.0854697902294	1.26022338867188	1.26007080078125	2.00347900390625E-06	2.5245253709727E-06	628941.375	4.07457555411384E-05
1	194	83.1861777899751	1.25015258789063	1.25030517578125	1.993408203125E-06	2.49236859417579E-06	627219.8125	4.09470158047043E-05
1	195	83.2868857897208	1.24008178710938	1.23992919921875	1.9830322265625E-06	2.45881960836414E-06	625269.3125	4.1147242882289E-05
1	196	83.3875937894666	1.23001098632813	1.2298583984375	1.9732666015625E-06	2.42683836404467E-06	623260.125	4.13464586017653E-05
1	197	83.4883017892123	1.21994018554688	1.219482421875	1.96258544921875E-06	2.39333849094692E-06	621365.25	4.15446447732393E-05
1	198	83.589009788958	1.20986938476563	1.20941162109375	1.95281982421875E-06	2.36176288126444E-06	619315.5625	4.17418013967108E-05
1	199	83.6897177887038	1.19979858398438	1.199951171875	1.94183349609375E-06	2.3301054170588E-06	617947.5	4.19379139202647E-05
1	200	83.7904257884495	1.18972778320313	1.1895751953125	1.93145751953125E-06	2.29761394621164E-06	615895.0625	4.21329496020917E-05
1	201	83.8911337881952	1.17965698242188	1.17919921875	1.92047119140625E-06	2.26461793317867E-06	614015.625	4.23269084421918E-05
1	202	83.991841787941	1.16958618164063	1.16943359375	1.90948486328125E-06	2.23301572077617E-06	612434.0625	4.25197613367345E-05
1	203	84.0925497876867	1.15951538085938	1.15936279296875	1.89727783203125E-06	2.19963339986862E-06	611066.4375	4.2711450078059E-05
1	204	84.1932577874325	1.14944458007813	1.14898681640625	1.88385009765625E-06	2.16451894630154E-06	609914.1875	4.29018436989281E-05
1	205	84.2939657871782	1.13937377929688	1.13922119140625	1.8701171875E-06	2.13047701436153E-06	609171.0625	4.30908694397658E-05
1	206	84.3946737869239	1.12930297851563	1.12884521484375	1.854248046875E-06	2.09315908250574E-06	608788.6875	4.32784072472714E-05
1	207	84.4953817866697	1.11923217773438	1.119384765625	1.83563232421875E-06	2.05477886083827E-06	609808.8125	4.34642061009072E-05
1	208	84.5960897864154	1.10916137695313	1.10931396484375	1.81365966796875E-06	2.01191801352252E-06	611643.9375	4.36479640484322E-05
1	209	84.6967977861611	1.09909057617188	1.09893798828125	1.78680419921875E-06	1.96358701032295E-06	615029.875	4.38292627222836E-05
1	210	84.7975057859069	1.08901977539063	1.0888671875	1.7529296875E-06	1.90870764527062E-06	621169.9375	4.40075018559583E-05
1	211	84.8982137856526	1.07894897460938	1.0784912109375	1.7083740234375E-06	1.84246630396956E-06	631296.9375	4.41817937826272E-05
1	212	84.9989217853984	1.06887817382813	1.0687255859375	1.651611328125E-06	1.76511935023882E-06	647080.5625	4.43509816250298E-05
1	213	85.0996297851441	1.05880737304688	1.0589599609375	1.5789794921875E-06	1.67207599588437E-06	670661	4.45136538473889E-05
1	214	85.2003377848898	1.04873657226563	1.04827880859375	1.485595703125E-06	1.55731845552509E-06	705628.625	4.46679659944493E-05
1	215	85.3010457846356	1.03866577148438	1.038818359375	1.3726806640625E-06	1.42596593377675E-06	756780.75	4.48118917120155E-05
1	216	85.4017537843813	1.02859497070313	1.02874755859375	1.24267578125E-06	1.27839962260623E-06	827848.75	4.49435865448322E-05
1	217	85.502461784127	1.01852416992188	1.0186767578125	1.1016845703125E-06	1.1222604143768E-06	924653.75	4.50616353191435E-05
1	218	85.6031697838728	1.00845336914063	1.00860595703125	9.6038818359375E-07	9.68653239397099E-07	1050206.5	4.51654668722767E-05
1	219	85.7038777836185	0.998382568359375	0.99822998046875	8.349609375E-07	8.33483056794648E-07	1195541	4.5255870645633E-05
1	220	85.8045857833642	0.988311767578125	0.9881591796875	7.3455810546875E-07	7.25860331840522E-07	1345243	4.53349020972382E-05
1	221	85.90529378311	0.978240966796875	0.9783935546875	6.671142578125E-07	6.52700293812813E-07	1466605.75	4.54054825240746E-05
1	222	86.0060017828557	0.968170166015625	0.96832275390625	6.3018798828125E-07	6.10225356467708E-07	1536561.75	4.54708060715348E-05
1	223	86.1067097826015	0.958099365234375	0.9576416015625	6.15844726562501E-07	5.89758542446361E-07	1555005	4.55335502920207E-05
1	224	86.2074177823472	0.948028564453125	0.9478759765625	6.121826171875E-07	5.80273194827896E-07	1548355	4.55953850178048E-05
1	225	86.3081257820929	0.937957763671875	0.93780517578125	6.09741210937501E-07	5.71818475236796E-07	1538038	4.56569141533691E-05
1	226	86.4088337818387	0.927886962890625	0.92803955078125	5.97229003906249E-07	5.54252096662822E-07	1553909.125	4.57176902273204E-05
1	227	86.5095417815844	0.917816162109375	0.91796875	5.69763183593749E-07	5.23024823451124E-07	1611140.875	4.57764544989914E-05
1	228	86.6102497813301	0.907745361328125	0.908203125	5.17578125E-07	4.70066026991844E-07	1754717.125	4.58312060800381E-05
1	229	86.7109577810759	0.897674560546875	0.8978271484375	4.33349609375E-07	3.89073051110245E-07	2071831	4.5879089157097E-05
1	230	86.8116657808216	0.887603759765625	0.88775634765625	3.13720703125001E-07	2.78507542361695E-07	2829766.5	4.59167058579624E-05
1	231	86.9123737805673	0.877532958984375	0.87799072265625	1.5380859375E-07	1.3504251228369E-07	5708333.5	4.59402472188231E-05
1	232	87.0130817803131	0.867462158203125	0.8673095703125	-4.2724609375E-08	-3.70554609219198E-08	-20300000	4.59458424302284E-05
1	233	87.1137897800588	0.857391357421875	0.85723876953125	-2.655029296875E-07	-2.27599414870383E-07	-3228735.5	4.59303228126373E-05
1	234	87.2144977798046	0.847320556640625	0.84747314453125	-4.93774414062501E-07	-4.18460530227094E-07	-1716316.5	4.58920876553748E-05
1	235	87.3152057795503	0.837249755859375	0.83740234375	-7.0770263671875E-07	-5.92631806739519E-07	-1183268.75	4.58315880678128E-05
1	236	87.415913779296	0.827178955078125	0.82794189453125	-8.831787109375E-07	-7.31220666239096E-07	-937456.8125	4.57514834124595E-05
1	237	87.5166217790418	0.817108154296875	0.81695556640625	-1.00677490234375E-06	-8.22490278551413E-07	-811458.0625	4.5656313886866E-05
1	238	87.6173297787875	0.807037353515625	0.80718994140625	-1.07421875E-06	-8.67098549406364E-07	-751420.4375	4.55515291832853E-05
1	239	87.7180377785332	0.796966552734375	0.7965087890625	-1.0919189453125E-06	-8.69722953211749E-07	-729457.875	4.54424553026911E-05
1	240	87.818745778279	0.786895751953125	0.78704833984375	-1.0711669921875E-06	-8.43060149691155E-07	-734757.875	4.53335342172068E-05
1	241	87.9194537780247	0.776824951171875	0.77728271484375	-1.025390625E-06	-7.97018401499372E-07	-758035.75	4.52279637102038E-05
1	242	88.0201617777705	0.766754150390625	0.7672119140625	-9.686279296875E-07	-7.43142834380706E-07	-792060.5	4.51275591331068E-05
1	243	88.1208697775162	0.756683349609375	0.7568359375	-9.10034179687499E-07	-6.88746524701855E-07	-831656.625	4.5032960770186E-05
1	244	88.2215777772619	0.746612548828125	0.74652099609375	-8.56933593750001E-07	-6.39718905404152E-07	-871153.875	4.4943986722501E-05
1	245	88.3222857770077	0.736541748046875	0.736480712890625	-8.1329345703125E-07	-5.98974907006777E-07	-905553.5	4.48598839284386E-05
1	246	88.4229937767534	0.726470947265625	0.72637939453125	-7.8338623046875E-07	-5.69035591979627E-07	-927230.25	4.47794845968019E-05
1	247	88.5237017764991	0.716400146484375	0.716339111328125	-7.6904296875E-07	-5.5089554962251E-07	-931468.25	4.47013153461739E-05
1	248	88.6244097762449	0.706329345703125	0.70623779296875	-7.7056884765625E-07	-5.44204795005498E-07	-916514.875	4.4623786379816E-05
1	249	88.7251177759906	0.696258544921875	0.69622802734375	-7.8582763671875E-07	-5.47115234894591E-07	-885980.5625	4.45454170403536E-05
1	250	88.8258257757363	0.686187744140625	0.686126708984375	-8.099365234375E-07	-5.55719054773363E-07	-847136.375	4.44650650024414E-05
1	251	88.9265337754821	0.676116943359375	0.676025390625	-8.38623046875001E-07	-5.66930452805536E-07	-806113.5625	4.43820536020212E-05
1	252	89.0272417752278	0.666046142578125	0.666046142578125	-8.61511230468751E-07	-5.73806175907521E-07	-773113.75	4.42964446847327E-05
1	253	89.1279497749736	0.655975341796875	0.655914306640625	-8.740234375E-07	-5.73284467009216E-07	-750453.9375	4.42090531578287E-05
1	254	89.2286577747193	0.645904541015625	0.6458740234375	-8.7158203125E-07	-5.62932200409705E-07	-741036.4375	4.41211559518706E-05
1	255	89.329365774465	0.635833740234375	0.63580322265625	-8.55407714843751E-07	-5.43870953606529E-07	-743275.125	4.40341937064659E-05
1	256	89.4300737742108	0.625762939453125	0.625732421875	-8.282470703125E-07	-5.18261003890075E-07	-755490.0625	4.39494142483454E-05
1	257	89.5307817739565	0.615692138671875	0.615631103515625	-7.940673828125E-07	-4.88852549551666E-07	-775288.25	4.38677234342322E-05
1	258	89.6314897737022	0.605621337890625	0.60565185546875	-7.55615234375E-07	-4.57639742990068E-07	-801534.75	4.37896924267989E-05
1	259	89.732197773448	0.595550537109375	0.59552001953125	-7.159423828125E-07	-4.26358013783101E-07	-831798.875	4.3715594074456E-05
1	260	89.8329057731937	0.585479736328125	0.58551025390625	-6.7779541015625E-07	-3.96856165707504E-07	-863845.125	4.36454138252884E-05
1	261	89.9336137729395	0.575408935546875	0.575408935546875	-6.4056396484375E-07	-3.68586228205459E-07	-898284.9375	4.35790279880166E-05
1	262	90.0343217726852	0.565338134765625	0.565338134765625	-6.05163574218751E-07	-3.42122035590364E-07	-934190.625	4.35163019574247E-05
1	263	90.1350297724309	0.555267333984375	0.555267333984375	-5.72509765625E-07	-3.17895967327786E-07	-969882.75	4.34569992648903E-05
1	264	90.2357377721767	0.545196533203125	0.545166015625	-5.4290771484375E-07	-2.95974814434885E-07	-1004159.6875	4.34008361480664E-05
1	265	90.3364457719224	0.535125732421875	0.535125732421875	-5.16357421875E-07	-2.76316143299482E-07	-1036347.5	4.33474961027969E-05
1	266	90.4371537716681	0.525054931640625	0.525054931640625	-4.913330078125E-07	-2.57976807915838E-07	-1068633.625	4.32967572123744E-05
1	267	90.5378617714139	0.514984130859375	0.514923095703125	-4.6844482421875E-07	-2.41213058416179E-07	-1099218.25	4.32484266639221E-05
1	268	90.6385697711596	0.504913330078125	0.5048828125	-4.4708251953125E-07	-2.25724264169003E-07	-1129283.375	4.32023261964787E-05
1	269	90.7392777709053	0.494842529296875	0.494873046875	-4.2694091796875E-07	-2.11281545148267E-07	-1159113.625	4.31583175668493E-05
1	270	90.8399857706511	0.484771728515625	0.4847412109375	-4.09851074218751E-07	-1.98671699536135E-07	-1182725.25	4.31161788583267E-05
1	271	90.9406937703968	0.474700927734375	0.47467041015625	-3.9337158203125E-07	-1.8672184864954E-07	-1206671.875	4.30757354479283E-05
1	272	91.0414017701426	0.464630126953125	0.464630126953125	-3.7841796875E-07	-1.7582438260888E-07	-1227822.625	4.30368709203321E-05
1	273	91.1421097698883	0.454559326171875	0.45458984375	-3.65600585937501E-07	-1.66198319107025E-07	-1243405.625	4.29994070145767E-05
1	274	91.242817769634	0.444488525390625	0.444549560546875	-3.5369873046875E-07	-1.57236598852251E-07	-1256859.375	4.29631872975733E-05
1	275	91.3435257693798	0.434417724609375	0.434356689453125	-3.43017578125E-07	-1.4899197253726E-07	-1266281.125	4.29281062679365E-05
1	276	91.4442337691255	0.424346923828125	0.424407958984375	-3.3416748046875E-07	-1.41823335297886E-07	-1270045.625	4.28940074925777E-05
1	277	91.5449417688712	0.414276123046875	0.414276123046875	-3.265380859375E-07	-1.35276920332217E-07	-1268691.625	4.28607381763868E-05
1	278	91.645649768617	0.404205322265625	0.4041748046875	-3.19519042968749E-07	-1.29141554339185E-07	-1264947.5	4.28282073698938E-05
1	279	91.7463577683627	0.394134521484375	0.39410400390625	-3.13415527343749E-07	-1.23518304917525E-07	-1257449	4.27963350375649E-05
1	280	91.8470657681085	0.384063720703125	0.38409423828125	-3.082275390625E-07	-1.18388413739012E-07	-1246138.625	4.27650338679086E-05
1	281	91.9477737678542	0.373992919921875	0.373992919921875	-3.0364990234375E-07	-1.13562911963072E-07	-1231658.25	4.27342238253914E-05
1	282	92.0484817675999	0.363922119140625	0.3638916015625	-3.0029296875E-07	-1.09274083115452E-07	-1211788.625	4.27038103225641E-05
1	283	92.1491897673457	0.353851318359375	0.353851318359375	-2.978515625E-07	-1.05395166372091E-07	-1188012.375	4.26736914960202E-05
1	284	92.2498977670914	0.343780517578125	0.343719482421875	-2.95104980468749E-07	-1.01433329291467E-07	-1164736.375	4.26438346039504E-05
1	285	92.3506057668371	0.333709716796875	0.333770751953125	-2.9266357421875E-07	-9.76825376142187E-08	-1140458.875	4.26142396463547E-05
1	286	92.4513137665829	0.323638916015625	0.3236083984375	-2.9022216796875E-07	-9.39183237846919E-08	-1115036.875	4.25848884333391E-05
1	287	92.5520217663286	0.313568115234375	0.31353759765625	-2.880859375E-07	-9.03257770801247E-08	-1088347.5	4.25557664129883E-05
1	288	92.6527297660743	0.303497314453125	0.303466796875	-2.8564453125E-07	-8.66836273871741E-08	-1062393.25	4.25268772232812E-05
1	289	92.7534377658201	0.293426513671875	0.29345703125	-2.82897949218749E-07	-8.30183850553112E-08	-1037324.75	4.24982499680482E-05
1	290	92.8541457655658	0.283355712890625	0.283355712890625	-2.79846191406249E-07	-7.92960150874933E-08	-1012540.9375	4.24699137511197E-05
1	291	92.9548537653116	0.273284912109375	0.273223876953125	-2.75573730468751E-07	-7.52933146941359E-08	-991472.9375	4.24419449700508E-05
1	292	93.0555617650573	0.263214111328125	0.263275146484375	-2.7130126953125E-07	-7.14268821866426E-08	-970416.1875	4.24144091084599E-05
1	293	93.156269764803	0.253143310546875	0.253173828125	-2.655029296875E-07	-6.72183944061544E-08	-953563.1875	4.23873789259233E-05
1	294	93.2569777645488	0.243072509765625	0.24310302734375	-2.60314941406251E-07	-6.32833518920961E-08	-933880.375	4.23609017161652E-05
1	295	93.3576857642945	0.233001708984375	0.23297119140625	-2.545166015625E-07	-5.92950364364242E-08	-915347.6875	4.23349774791859E-05
1	296	93.4583937640402	0.222930908203125	0.222900390625	-2.4871826171875E-07	-5.54393970730871E-08	-896196.3125	4.23096389567945E-05
1	297	93.559101763786	0.212860107421875	0.212890625	-2.4383544921875E-07	-5.19102805185412E-08	-873091.375	4.22848352172878E-05
1	298	93.6598097635317	0.202789306640625	0.202789306640625	-2.398681640625E-07	-4.86427005341739E-08	-845419.8125	4.22604789491743E-05
1	299	93.7605177632774	0.192718505859375	0.1927490234375	-2.362060546875E-07	-4.5528484093893E-08	-816020.6875	4.22365046688356E-05
1	300	93.8612257630232	0.182647705078125	0.182647705078125	-2.34375000000001E-07	-4.2808053990484E-08	-779296.875	4.2212810512865E-05
1	301	93.9619337627689	0.172576904296875	0.172515869140625	-2.3468017578125E-07	-4.04860536207252E-08	-735110.5625	4.21891927544493E-05
1	302	94.0626417625147	0.162506103515625	0.162567138671875	-2.3681640625E-07	-3.84985661128212E-08	-686469.0625	4.21654513047542E-05
1	303	94.1633497622604	0.152435302734375	0.152435302734375	-2.423095703125E-07	-3.6936533831522E-08	-629093.1875	4.21413242293056E-05
1	304	94.2640577620061	0.142364501953125	0.142425537109375	-2.51159667968751E-07	-3.57715492782518E-08	-567071.6875	4.21164768340532E-05
1	305	94.3647657617519	0.132293701171875	0.132354736328125	-2.6519775390625E-07	-3.51001787635141E-08	-499079.4375	4.20904761995189E-05
1	306	94.4654737614976	0.122222900390625	0.122283935546875	-2.86865234375E-07	-3.50790081427022E-08	-426276.59375	4.20626784034539E-05
1	307	94.5661817612433	0.112152099609375	0.1121826171875	-3.18603515625E-07	-3.57417739849097E-08	-352107.3125	4.20321885030717E-05
1	308	94.6668897609891	0.102081298828125	0.1021728515625	-3.643798828125E-07	-3.7229732186006E-08	-280402.03125	4.19977986894082E-05
1	309	94.7675977607348	0.092010498046875	0.092071533203125	-4.2877197265625E-07	-3.94776904499849E-08	-214733.109375	4.1957860958064E-05
1	310	94.8683057604806	0.081939697265625	0.082000732421875	-5.1849365234375E-07	-4.25168593665148E-08	-158151.84375	4.19101597799454E-05
1	311	94.9690137602263	0.071868896484375	0.071868896484375	-6.39953613281249E-07	-4.5992759822866E-08	-112303.2890625	4.18518284277525E-05
1	312	95.069721759972	0.061798095703125	0.06182861328125	-7.9803466796875E-07	-4.93413772062468E-08	-77476.1015625	4.17794217355549E-05
1	313	95.1704297597178	0.051727294921875	0.0517578125	-9.9700927734375E-07	-5.16030169706028E-08	-51913.0703125	4.16890325141139E-05
1	314	95.2711377594635	0.041656494140625	0.0417755126953125	-1.2322998046875E-06	-5.14799545214828E-08	-33900.44921875	4.15767790400423E-05
1	315	95.3718457592092	0.031585693359375	0.03165283203125	-1.49200439453125E-06	-4.72261589834488E-08	-21214.97265625	4.14395981351845E-05
1	316	95.472553758955	0.021514892578125	0.0215728759765625	-1.75323486328125E-06	-3.78223212749162E-08	-12304.61328125	4.12761874031276E-05
1	317	95.5732617587007	0.011444091796875	0.0115386962890625	-1.9921875E-06	-2.29872458845648E-08	-5791.97314453125	4.10875909437891E-05
1	318	95.6739697584464	0.001373291015625	0.00147705078125	-2.18292236328125E-06	-3.22428728161128E-09	-676.639221191406	4.08773557865061E-05
1	319	95.7746777581922	-0.008697509765625	-0.00858154296874999	-2.31048583984375E-06	1.98275333929132E-08	3714.1728515625	4.06510953325778E-05
1	320	95.8753857579379	-0.018768310546875	-0.0186859130859375	-2.3724365234375E-06	4.43311414244363E-08	7876.25439453125	4.04152924602386E-05
1	321	95.9760937576837	-0.028839111328125	-0.0287353515625	-2.37823486328125E-06	6.83394105749358E-08	12082.638671875	4.01760771637782E-05
1	322	96.0768017574294	-0.038909912109375	-0.0387664794921875	-2.34375E-06	9.08589328219023E-08	16540.365234375	3.99383061449043E-05
1	323	96.1775097571751	-0.048980712890625	-0.0488433837890625	-2.28363037109375E-06	1.11540231273466E-07	21388.482421875	3.97053008782677E-05
1	324	96.2782177569209	-0.059051513671875	-0.058990478515625	-2.21282958984375E-06	1.30535866560422E-07	26658.392578125	3.94788839912508E-05
1	325	96.3789257566666	-0.069122314453125	-0.06903076171875	-2.13897705078125E-06	1.47655200066765E-07	32272.794921875	3.92597539757844E-05
1	326	96.4796337564123	-0.079193115234375	-0.079132080078125	-2.06817626953125E-06	1.63659080953948E-07	38261.76953125	3.90479071938898E-05
1	327	96.5803417561581	-0.089263916015625	-0.0892333984375	-2.00347900390625E-06	1.78777241899297E-07	44539.22265625	3.88428816222586E-05
1	328	96.6810497559038	-0.099334716796875	-0.0992431640625	-1.94610595703125E-06	1.93137694282086E-07	50995.76953125	3.86440042348113E-05
1	329	96.7817577556496	-0.109405517578125	-0.109283447265625	-1.89666748046875E-06	2.0727435412482E-07	57618.66796875	3.84505074180197E-05
1	330	96.8824657553953	-0.119476318359375	-0.119415283203125	-1.854248046875E-06	2.21425551671928E-07	64400.921875	3.82616308343131E-05
1	331	96.983173755141	-0.129547119140625	-0.129486083984375	-1.817626953125E-06	2.35357390465651E-07	71239.09375	3.80767378374003E-05
1	332	97.0838817548868	-0.139617919921875	-0.139495849609375	-1.7889404296875E-06	2.49549771069724E-07	77976.8046875	3.78951335733291E-05
1	333	97.1845897546325	-0.149688720703125	-0.14959716796875	-1.7645263671875E-06	2.63968132685477E-07	84780.3515625	3.77162032236811E-05
1	334	97.2852977543782	-0.159759521484375	-0.15966796875	-1.74652099609375E-06	2.78863467428891E-07	91420.5859375	3.75394083675928E-05
1	335	97.386005754124	-0.169830322265625	-0.169708251953125	-1.73309326171875E-06	2.94120212629423E-07	97922.171875	3.73641960322857E-05
1	336	97.4867137538697	-0.179901123046875	-0.17974853515625	-1.7242431640625E-06	3.09930186404017E-07	104247.7890625	3.71901041944511E-05
1	337	97.5874217536154	-0.189971923828125	-0.189849853515625	-1.719970703125E-06	3.26536166994629E-07	110379.703125	3.70166744687594E-05
1	338	97.6881297533612	-0.200042724609375	-0.199981689453125	-1.72088623046875E-06	3.44145718145228E-07	116208.546875	3.68434120900929E-05
1	339	97.7888377531069	-0.189971923828125	-0.1898193359375	-1.5216064453125E-06	2.88830307226817E-07	124749.3046875	3.66801396012306E-05
2	340	97.8895457528527	-0.179901123046875	-0.179779052734375	-1.3787841796875E-06	2.47876528192137E-07	130389.5546875	3.65340929420199E-05
2	341	97.9902537525984	-0.169830322265625	-0.16973876953125	-1.2628173828125E-06	2.14349071825382E-07	134412.765625	3.64010775228962E-05
2	342	98.0909617523441	-0.159759521484375	-0.15960693359375	-1.16455078125E-06	1.8587037686757E-07	137054.5	3.62788523489144E-05
2	343	98.1916697520899	-0.149688720703125	-0.14959716796875	-1.0791015625E-06	1.61430520506656E-07	138631.234375	3.61658749170601E-05
2	344	98.2923777518356	-0.139617919921875	-0.139556884765625	-1.0028076171875E-06	1.3994871039813E-07	139166.15625	3.6061042919755E-05
2	345	98.3930857515813	-0.129547119140625	-0.12945556640625	-9.3414306640625E-07	1.20930010893971E-07	138582.171875	3.59635087079369E-05
2	346	98.4937937513271	-0.119476318359375	-0.119384765625	-8.7005615234375E-07	1.0387144300239E-07	137215.015625	3.58726611011662E-05
2	347	98.5945017510728	-0.109405517578125	-0.1092529296875	-8.09326171875E-07	8.8421252542048E-08	134992.46875	3.57880962837953E-05
2	348	98.6952097508185	-0.099334716796875	-0.099273681640625	-7.50122070312501E-07	7.44673798180884E-08	132343.375	3.57095705112442E-05
2	349	98.7959177505643	-0.089263916015625	-0.08917236328125	-6.903076171875E-07	6.15563635619765E-08	129177.71875	3.56370401277672E-05
2	350	98.89662575031	-0.079193115234375	-0.079132080078125	-6.26220703124999E-07	4.95541456757564E-08	126364.5234375	3.55707488779444E-05
2	351	98.9973337500558	-0.069122314453125	-0.069061279296875	-5.5389404296875E-07	3.82526295084062E-08	124683.1953125	3.55113261321094E-05
2	352	99.0980417498015	-0.059051513671875	-0.0589599609375	-4.70886230468751E-07	2.77634324419296E-08	125210.6328125	3.54597214027308E-05
2	353	99.1987497495472	-0.048980712890625	-0.04884033203125	-3.69873046874999E-07	1.80647230507702E-08	132046.203125	3.54173862433527E-05
2	354	99.299457749293	-0.038909912109375	-0.0387664794921875	-2.4383544921875E-07	9.45264222451669E-09	158986.234375	3.53864852513652E-05
2	355	99.4001657490387	-0.028839111328125	-0.02872314453125	-8.63647460937506E-08	2.48066700514471E-09	332579.53125	3.53698596882168E-05
2	356	99.5008737487844	-0.018768310546875	-0.0186370849609375	1.08642578125E-07	-2.02478100952419E-09	-171544.953125	3.53709801856894E-05
2	357	99.6015817485302	-0.008697509765625	-0.00858459472656251	3.39660644531251E-07	-2.9158486736236E-09	-25274.033203125	3.53935538441874E-05
2	358	99.7022897482759	0.001373291015625	0.00145568847656249	6.0302734375E-07	8.7781992785807E-10	2413.9677734375	3.54410221916623E-05
2	359	99.8029977480217	0.011444091796875	0.0114959716796875	8.8226318359375E-07	1.01424726395294E-08	13030.09375	3.55158117599785E-05
2	360	99.9037057477674	0.021514892578125	0.021600341796875	1.15447998046875E-06	2.49371616689587E-08	18710.01953125	3.56183700205293E-05
2	361	100.004413747513	0.031585693359375	0.031689453125	1.39312744140625E-06	4.41474448109602E-08	22746.990234375	3.57466524292249E-05
2	362	100.105121747259	0.041656494140625	0.0417449951171875	1.57745361328125E-06	6.58507914863549E-08	26463.53515625	3.58962315658573E-05
2	363	100.205829747005	0.051727294921875	0.051788330078125	1.69464111328125E-06	8.77626291639899E-08	30560.05859375	3.60609956260305E-05
2	364	100.30653774675	0.061798095703125	0.06182861328125	1.74774169921875E-06	1.08060440595636E-07	35376.2890625	3.6234334402252E-05
2	365	100.407245746496	0.071868896484375	0.0718994140625	1.7474365234375E-06	1.25639658676846E-07	41145.65234375	3.64103289030027E-05
2	366	100.507953746242	0.081939697265625	0.082000732421875	1.71051025390625E-06	1.40263097136994E-07	47939.33984375	3.65844498446677E-05
2	367	100.608661745988	0.092010498046875	0.092041015625	1.6522216796875E-06	1.52072161085925E-07	55707.42578125	3.67537795682438E-05
2	368	100.709369745733	0.102081298828125	0.102142333984375	1.5838623046875E-06	1.61779396989914E-07	64489.40234375	3.69167282769922E-05
2	369	100.810077745479	0.112152099609375	0.1121826171875	1.513671875E-06	1.69807663041865E-07	74112.90625	3.70727029803675E-05
2	370	100.910785745225	0.122222900390625	0.122344970703125	1.4459228515625E-06	1.76901394866036E-07	84613.7578125	3.72217291442212E-05
2	371	101.01149374497	0.132293701171875	0.132354736328125	1.383056640625E-06	1.8305409810182E-07	95697.265625	3.73641778423917E-05
2	372	101.112201744716	0.142364501953125	0.14239501953125	1.326904296875E-06	1.8894455422469E-07	107313.7109375	3.75006384274457E-05
2	373	101.212909744462	0.152435302734375	0.152496337890625	1.2762451171875E-06	1.94622700178115E-07	119488.2890625	3.76317148038652E-05
2	374	101.313617744208	0.162506103515625	0.162506103515625	1.23199462890625E-06	2.00206642375633E-07	131904.890625	3.7758014514111E-05
2	375	101.414325743953	0.172576904296875	0.172576904296875	1.19293212890625E-06	2.05872538572294E-07	144666.15625	3.78801196347922E-05
2	376	101.515033743699	0.182647705078125	0.182647705078125	1.158447265625E-06	2.11587732223961E-07	157665.96875	3.79985212930478E-05
2	377	101.615741743445	0.192718505859375	0.1927490234375	1.1285400390625E-06	2.17524984691408E-07	170795.03125	3.81136815121863E-05
2	378	101.716449743191	0.202789306640625	0.202789306640625	1.10198974609375E-06	2.23471730009805E-07	184021.046875	3.82259968318976E-05
2	379	101.817157742936	0.212860107421875	0.212890625	1.07818603515625E-06	2.29535686457893E-07	197452.609375	3.83357764803804E-05
2	380	101.917865742682	0.222930908203125	0.222930908203125	1.0577392578125E-06	2.35802772863281E-07	210761.6875	3.84433296858333E-05
2	381	102.018573742428	0.233001708984375	0.233001708984375	1.03912353515625E-06	2.42117550897092E-07	224229.078125	3.85489147447515E-05
2	382	102.119281742174	0.243072509765625	0.243072509765625	1.0235595703125E-06	2.48799182145376E-07	237477.640625	3.8652779039694E-05
2	383	102.219989741919	0.253143310546875	0.25311279296875	1.00860595703125E-06	2.55291070061503E-07	250953.09375	3.87551081075799E-05
2	384	102.320697741665	0.263214111328125	0.263214111328125	9.9609375E-07	2.62185920973934E-07	264246.34375	3.88560511055402E-05
2	385	102.421405741411	0.273284912109375	0.2733154296875	9.844970703125E-07	2.69078242354226E-07	277619.34375	3.89557826565579E-05
2	386	102.522113741157	0.283355712890625	0.283355712890625	9.74121093749999E-07	2.76022774414741E-07	290883.4375	3.90544082620181E-05
2	387	102.622821740902	0.293426513671875	0.293426513671875	9.65270996093751E-07	2.8323609058134E-07	303983.5625	3.91520625271369E-05
2	388	102.723529740648	0.303497314453125	0.303497314453125	9.5703125E-07	2.90456426910168E-07	317123.71875	3.92488582292572E-05
2	389	102.824237740394	0.313568115234375	0.3135986328125	9.503173828125E-07	2.98018221656093E-07	329993.59375	3.93449008697644E-05
2	390	102.924945740139	0.323638916015625	0.32366943359375	9.43908691406251E-07	3.05514390674944E-07	342903.34375	3.94402813981287E-05
2	391	103.025653739885	0.333709716796875	0.333648681640625	9.38720703125E-07	3.13202917823219E-07	355429.125	3.95350798498839E-05
2	392	103.126361739631	0.343780517578125	0.343841552734375	9.3353271484375E-07	3.20987339819112E-07	368323	3.96293580706697E-05
2	393	103.227069739377	0.353851318359375	0.353851318359375	9.295654296875E-07	3.28927939108326E-07	380663.15625	3.97231706301682E-05
2	394	103.327777739122	0.363922119140625	0.36395263671875	9.259033203125E-07	3.36984953719366E-07	393078.46875	3.98166012018919E-05
2	395	103.428485738868	0.373992919921875	0.373992919921875	9.2315673828125E-07	3.45254079547885E-07	405123.96875	3.99097079935018E-05
2	396	103.529193738614	0.384063720703125	0.38409423828125	9.21020507812501E-07	3.53758679239036E-07	417031.15625	4.00025710405316E-05
2	397	103.62990173836	0.394134521484375	0.3941650390625	9.19189453124999E-07	3.62312334800663E-07	428818.09375	4.00952339987271E-05
2	398	103.730609738105	0.404205322265625	0.40423583984375	9.17968750000001E-07	3.71075856264724E-07	440359.03125	4.01877405238338E-05
2	399	103.831317737851	0.414276123046875	0.414215087890625	9.173583984375E-07	3.79983674747564E-07	451530.28125	4.02801560994703E-05
2	400	103.932025737597	0.424346923828125	0.42437744140625	9.16748046875E-07	3.89047187354663E-07	462916.125	4.03725098294672E-05
2	401	104.032733737343	0.434417724609375	0.434417724609375	9.1705322265625E-07	3.98384145228192E-07	473710.5	4.04648490075488E-05
2	402	104.133441737088	0.444488525390625	0.44451904296875	9.1705322265625E-07	4.07647604561134E-07	484725.5	4.05572063755244E-05
2	403	104.234149736834	0.454559326171875	0.454620361328125	9.17663574218749E-07	4.17188545043246E-07	495410.71875	4.06495892093517E-05
2	404	104.33485773658	0.464630126953125	0.464599609375	9.185791015625E-07	4.26771492811895E-07	505780.75	4.07420520787127E-05
2	405	104.435565736326	0.474700927734375	0.474700927734375	9.197998046875E-07	4.36629818523215E-07	516091.59375	4.08346204494592E-05
2	406	104.536273736071	0.484771728515625	0.484771728515625	9.22241210937499E-07	4.47076473619745E-07	525645.25	4.09273779951036E-05
2	407	104.636981735817	0.494842529296875	0.49481201171875	9.2498779296875E-07	4.5769505163662E-07	534939	4.10203901992645E-05
2	408	104.737689735563	0.504913330078125	0.50494384765625	9.2742919921875E-07	4.68299674594164E-07	544455.4375	4.11136679758783E-05
2	409	104.838397735308	0.514984130859375	0.51495361328125	9.3109130859375E-07	4.79468837966124E-07	553064.5625	4.1207251342712E-05
2	410	104.939105735054	0.525054931640625	0.525054931640625	9.3505859375E-07	4.90957120291569E-07	561520.9375	4.13012203352991E-05
2	411	105.0398137348	0.535125732421875	0.53509521484375	9.3994140625E-07	5.02958130255138E-07	569285.6875	4.13956331613008E-05
2	412	105.140521734546	0.545196533203125	0.545166015625	9.45434570312501E-07	5.15418776103616E-07	576630.125	4.14905698562507E-05
2	413	105.241229734291	0.555267333984375	0.555267333984375	9.5245361328125E-07	5.28866394233773E-07	582986.25	4.15861359215342E-05
2	414	105.341937734037	0.565338134765625	0.565277099609375	9.613037109375E-07	5.43402961739048E-07	588031.75	4.16825023421552E-05
2	415	105.442645733783	0.575408935546875	0.575439453125	9.716796875E-07	5.59142847578187E-07	592211.0625	4.17798364651389E-05
2	416	105.543353733529	0.585479736328125	0.58544921875	9.8480224609375E-07	5.76551713038498E-07	594484.0625	4.1878352931235E-05
2	417	105.644061733274	0.595550537109375	0.59552001953125	1.00250244140625E-06	5.9701028476411E-07	594033.4375	4.19784191763029E-05
2	418	105.74476973302	0.605621337890625	0.605560302734375	1.024169921875E-06	6.20196658474015E-07	591269.375	4.20804717577994E-05
2	419	105.845477732766	0.615692138671875	0.615631103515625	1.05255126953125E-06	6.47983313228906E-07	584894.1875	4.21850418206304E-05
2	420	105.946185732512	0.625762939453125	0.62567138671875	1.08978271484375E-06	6.81845847338991E-07	574124.875	4.22929188061971E-05
2	421	106.046893732257	0.635833740234375	0.635772705078125	1.1383056640625E-06	7.23703635685524E-07	558525.5	4.2405110434629E-05
2	422	106.147601732003	0.645904541015625	0.645843505859375	1.19873046875E-06	7.74192244534788E-07	538772.9375	4.25227917730808E-05
2	423	106.248309731749	0.655975341796875	0.6558837890625	1.2701416015625E-06	8.33065257666021E-07	516386.375	4.26471087848768E-05
2	424	106.349017731495	0.666046142578125	0.666015625	1.34918212890625E-06	8.98576331564982E-07	493644	4.27790000685491E-05
2	425	106.44972573124	0.676116943359375	0.676055908203125	1.42913818359375E-06	9.6617725375836E-07	473051.46875	4.29189021815546E-05
2	426	106.550433730986	0.686187744140625	0.68609619140625	1.50238037109375E-06	1.03077741187008E-06	456672.78125	4.30665131716523E-05
2	427	106.651141730732	0.696258544921875	0.696197509765625	1.563720703125E-06	1.08865845049877E-06	445218.59375	4.32209053542465E-05
2	428	106.751849730477	0.706329345703125	0.706298828125	1.6094970703125E-06	1.13678595425881E-06	438832	4.33806890214328E-05
2	429	106.852557730223	0.716400146484375	0.71630859375	1.640625E-06	1.17519380182785E-06	436607.15625	4.35443471360486E-05
2	430	106.953265729969	0.726470947265625	0.726409912109375	1.661376953125E-06	1.20684069315757E-06	437233.65625	4.37106136814691E-05
2	431	107.053973729715	0.736541748046875	0.7364501953125	1.67755126953125E-06	1.23543293284456E-06	439003.09375	4.38787428720389E-05
2	432	107.15468172946	0.746612548828125	0.746490478515625	1.69464111328125E-06	1.26503334740846E-06	440500.65625	4.40485455328599E-05
2	433	107.255389729206	0.756683349609375	0.75714111328125	1.71844482421875E-06	1.30110515783599E-06	440596.71875	4.42204109276645E-05
2	434	107.356097728952	0.766754150390625	0.7672119140625	1.75537109375E-06	1.34674155560788E-06	437065.375	4.43953285866883E-05
2	435	107.456805728698	0.776824951171875	0.7769775390625	1.8115234375E-06	1.40751296839881E-06	428908.375	4.45749356003944E-05
2	436	107.557513728443	0.786895751953125	0.7867431640625	1.89483642578125E-06	1.49074958244455E-06	415203.75	4.4761567551177E-05
2	437	107.658221728189	0.796966552734375	0.797119140625	2.010498046875E-06	1.6026065168262E-06	396478.4375	4.49582148576155E-05
2	438	107.758929727935	0.807037353515625	0.80718994140625	2.16156005859375E-06	1.74478941517009E-06	373429.375	4.51682972197887E-05
2	439	107.859637727681	0.817108154296875	0.81787109375	2.347412109375E-06	1.91988033293455E-06	348413.96875	4.53953398391604E-05
2	440	107.960345727426	0.827178955078125	0.82672119140625	2.56103515625E-06	2.1172618289711E-06	322807.46875	4.56425004813354E-05
2	441	108.061053727172	0.837249755859375	0.83740234375	2.7862548828125E-06	2.33321634368622E-06	300547.65625	4.59117582067847E-05
2	442	108.161761726918	0.847320556640625	0.84716796875	3.0035400390625E-06	2.54450264947081E-06	282056.5	4.62032985524274E-05
2	443	108.262469726664	0.857391357421875	0.8575439453125	3.1903076171875E-06	2.73582895715663E-06	268796.625	4.65151824755594E-05
2	444	108.363177726409	0.867462158203125	0.8673095703125	3.330078125E-06	2.88820842797577E-06	260447.21875	4.68435100628994E-05
2	445	108.463885726155	0.877532958984375	0.877685546875	3.41278076171875E-06	2.99534826808667E-06	257176.078125	4.71830389869865E-05
2	446	108.564593725901	0.887603759765625	0.88775634765625	3.44390869140625E-06	3.05735170513799E-06	257775.8125	4.75283013656735E-05
2	447	108.665301725646	0.897674560546875	0.89813232421875	3.4326171875E-06	3.08294443129853E-06	261646.515625	4.78745605505537E-05
2	448	108.766009725392	0.907745361328125	0.908203125	3.394775390625E-06	3.0831456570013E-06	267529.65625	4.82183495478239E-05
2	449	108.866717725138	0.917816162109375	0.91796875	3.34320068359375E-06	3.06895367430116E-06	274577.8125	4.85576310893521E-05
2	450	108.967425724884	0.927886962890625	0.92803955078125	3.29132080078125E-06	3.05447588289098E-06	281965.6875	4.88917066832073E-05
2	451	109.068133724629	0.937957763671875	0.93780517578125	3.24798583984375E-06	3.04597779177129E-06	288734.40625	4.92209874209948E-05
2	452	109.168841724375	0.948028564453125	0.9478759765625	3.22052001953125E-06	3.05265348288231E-06	294323.90625	4.95467029395513E-05
2	453	109.269549724121	0.958099365234375	0.958251953125	3.21380615234375E-06	3.07963614432083E-06	298167.3125	4.98706976941321E-05
2	454	109.370257723867	0.968170166015625	0.96832275390625	3.23028564453125E-06	3.12795896206808E-06	299763.8125	5.01951835758518E-05
2	455	109.470965723612	0.978240966796875	0.9783935546875	3.27301025390625E-06	3.20229196404398E-06	298927.75	5.05226489622146E-05
2	456	109.571673723358	0.988311767578125	0.9881591796875	3.33648681640625E-06	3.29698013956659E-06	296167.5625	5.08554658154026E-05
2	457	109.672381723104	0.998382568359375	0.99853515625	3.41522216796875E-06	3.41021950589493E-06	292377.8125	5.11954385729041E-05
2	458	109.77308972285	1.00845336914063	1.00860595703125	3.49700927734375E-06	3.52710435436165E-06	288419.59375	5.15434985572938E-05
2	459	109.873797722595	1.01852416992188	1.01898193359375	3.568115234375E-06	3.635844677774E-06	285579.90625	5.18992565048393E-05
2	460	109.974505722341	1.02859497070313	1.02874755859375	3.61572265625E-06	3.71966575585247E-06	284520.59375	5.22609916515648E-05
2	461	110.075213722087	1.03866577148438	1.03851318359375	3.63555908203125E-06	3.77557603314926E-06	285654.3125	5.26261210325174E-05
2	462	110.175921721833	1.04873657226563	1.048583984375	3.62762451171875E-06	3.80386882170569E-06	289055.28125	5.29918506799731E-05
2	463	110.276629721578	1.05880737304688	1.058349609375	3.5968017578125E-06	3.80667370336596E-06	294247.40625	5.33556303707883E-05
2	464	110.377337721324	1.06887817382813	1.0687255859375	3.55010986328125E-06	3.79409311790369E-06	301040.15625	5.37155065103434E-05
2	465	110.47804572107	1.07894897460938	1.07940673828125	3.49456787109375E-06	3.77206015400589E-06	308881.3125	5.40702349098865E-05
2	466	110.578753720815	1.08901977539063	1.08856201171875	3.43597412109375E-06	3.74027081306849E-06	316813.21875	5.44192153029144E-05
2	467	110.679461720561	1.09909057617188	1.0992431640625	3.3782958984375E-06	3.71356850337179E-06	325383.9375	5.47623385500629E-05
2	468	110.780169720307	1.10916137695313	1.1090087890625	3.3221435546875E-06	3.68428641195351E-06	333823.25	5.5099735618569E-05
2	469	110.880877720053	1.11923217773438	1.11907958984375	3.2708740234375E-06	3.66036829291261E-06	342134.71875	5.54317193746101E-05
2	470	110.981585719798	1.12930297851563	1.12945556640625	3.2244873046875E-06	3.64191510016099E-06	350274.46875	5.57587882212829E-05
2	471	111.082293719544	1.13937377929688	1.13922119140625	3.1805419921875E-06	3.62334071724035E-06	358184.625	5.6081305956468E-05
2	472	111.18300171929	1.14944458007813	1.1492919921875	3.14208984375E-06	3.61117872671457E-06	365773.125	5.6399676395813E-05
2	473	111.283709719036	1.15951538085938	1.15936279296875	3.10760498046875E-06	3.60284161615709E-06	373072.78125	5.67143724765629E-05
2	474	111.384417718781	1.16958618164063	1.16943359375	3.0767822265625E-06	3.59809246219811E-06	380083.3125	5.70257798244711E-05
2	475	111.485125718527	1.17965698242188	1.17919921875	3.04840087890625E-06	3.59467207999842E-06	386825.5	5.73342076677363E-05
2	476	111.585833718273	1.18972778320313	1.1895751953125	3.02398681640625E-06	3.59725959242496E-06	393379.78125	5.76399761484936E-05
2	477	111.686541718019	1.19979858398438	1.19964599609375	3.00201416015625E-06	3.60135436494602E-06	399613.6875	5.79434090468567E-05
2	478	111.787249717764	1.20986938476563	1.21002197265625	2.98248291015625E-06	3.60886974704044E-06	405709.625	5.82447537453845E-05
2	479	111.88795771751	1.21994018554688	1.21978759765625	2.965087890625E-06	3.61677734872501E-06	411383.3125	5.85442394367419E-05
2	480	111.988665717256	1.23001098632813	1.2298583984375	2.94952392578125E-06	3.6274966532801E-06	416968.46875	5.88420625717845E-05
2	481	112.089373717002	1.24008178710938	1.2396240234375	2.93670654296875E-06	3.64041193279263E-06	422113.6875	5.91384559811559E-05
2	482	112.190081716747	1.25015258789063	1.25030517578125	2.9254150390625E-06	3.65766140930646E-06	427394.125	5.94336379435845E-05
2	483	112.290789716493	1.26022338867188	1.26007080078125	2.91595458984375E-06	3.67430925507506E-06	432129.78125	5.97277758060955E-05
2	484	112.391497716239	1.27029418945313	1.2701416015625	2.90863037109375E-06	3.69437225344882E-06	436680.34375	6.00210660195444E-05
2	485	112.492205715984	1.28036499023438	1.280517578125	2.9034423828125E-06	3.71790883946232E-06	441034.28125	6.03137268626597E-05
2	486	112.59291371573	1.29043579101563	1.290283203125	2.899169921875E-06	3.74075011677633E-06	445052.625	6.06059111305512E-05
2	487	112.693621715476	1.30050659179688	1.30096435546875	2.8973388671875E-06	3.76933462575835E-06	449020.4375	6.0897789808223E-05
2	488	112.794329715222	1.31057739257813	1.31072998046875	2.89703369140625E-06	3.79722882826172E-06	452438.625	6.11895593465306E-05
2	489	112.895037714967	1.32064819335938	1.32049560546875	2.89947509765625E-06	3.82874395654653E-06	455425.75	6.14814343862236E-05
2	490	112.995745714713	1.33071899414063	1.33056640625	2.90313720703125E-06	3.8628168113064E-06	458320.21875	6.17736222920939E-05
2	491	113.096453714459	1.34078979492188	1.34033203125	2.90863037109375E-06	3.89853039450827E-06	460812.125	6.2066268583294E-05
2	492	113.197161714205	1.35086059570313	1.3507080078125	2.91595458984375E-06	3.93860318581574E-06	463212.96875	6.23595551587641E-05
2	493	113.29786971395	1.36093139648438	1.361083984375	2.9248046875E-06	3.9809046938899E-06	465358.9375	6.26536639174446E-05
2	494	113.398577713696	1.37100219726563	1.370849609375	2.935791015625E-06	4.02452769776573E-06	466943.875	6.29487694823183E-05
2	495	113.499285713442	1.38107299804688	1.38092041015625	2.94769287109375E-06	4.07052903028671E-06	468475	6.3245024648495E-05
2	496	113.599993713188	1.39114379882813	1.39129638671875	2.96173095703125E-06	4.12064537158585E-06	469757.875	6.35425894870423E-05
2	497	113.700701712933	1.40121459960938	1.40106201171875	2.97882080078125E-06	4.17351247961051E-06	470341.15625	6.38417186564766E-05
2	498	113.801409712679	1.41128540039063	1.41082763671875	2.99957275390625E-06	4.23187975684414E-06	470342.875	6.41427541268058E-05
2	499	113.902117712425	1.42135620117188	1.422119140625	3.02581787109375E-06	4.30307318310952E-06	469994.96875	6.44461542833596E-05
2	500	114.002825712171	1.43142700195313	1.431884765625	3.05816650390625E-06	4.37894186688936E-06	468216.75	6.47525084787048E-05
2	501	114.103533711916	1.44149780273438	1.44134521484375	3.09814453125E-06	4.46549574917299E-06	465228.5625	6.50625079288147E-05
2	502	114.204241711662	1.45156860351563	1.45172119140625	3.148193359375E-06	4.57029864264769E-06	461128.375	6.53770330245607E-05
2	503	114.304949711408	1.46163940429688	1.461181640625	3.2080078125E-06	4.68748203275027E-06	455479.46875	6.5697095124051E-05
2	504	114.405657711153	1.47171020507813	1.470947265625	3.28125E-06	4.82654559164075E-06	448288.6875	6.60238511045463E-05
2	505	114.506365710899	1.48178100585938	1.48162841796875	3.36883544921875E-06	4.99136240250664E-06	439804.34375	6.63587125018239E-05
2	506	114.607073710645	1.49185180664063	1.49200439453125	3.4722900390625E-06	5.18067190569127E-06	429688.875	6.67031927150674E-05
2	507	114.707781710391	1.50192260742188	1.50177001953125	3.58795166015625E-06	5.38827816853882E-06	418559.15625	6.7058703280054E-05
2	508	114.808489710136	1.49185180664063	1.4923095703125	3.2891845703125E-06	4.90848151457612E-06	453702	6.74049952067435E-05
2	509	114.909197709882	1.48178100585938	1.48162841796875	3.07037353515625E-06	4.54915243608411E-06	482556.4375	6.77252246532589E-05
2	510	115.009905709628	1.47171020507813	1.47216796875	2.89886474609375E-06	4.2676156226662E-06	507842.9375	6.80257944623008E-05
2	511	115.110613709374	1.46163940429688	1.461181640625	2.7587890625E-06	4.03109152102843E-06	529646.0625	6.83106845826842E-05
2	512	115.211321709119	1.45156860351563	1.45172119140625	2.642822265625E-06	3.83664109904203E-06	549307.1875	6.85826744302176E-05
2	513	115.312029708865	1.44149780273438	1.44134521484375	2.54547119140625E-06	3.66890253644669E-06	566239.125	6.88439249643125E-05
2	514	115.412737708611	1.43142700195313	1.43157958984375	2.46307373046875E-06	3.52608617504302E-06	581216.6875	6.90961242071353E-05
2	515	115.513445708357	1.42135620117188	1.4215087890625	2.39349365234375E-06	3.40237215823436E-06	593905.4375	6.93406764185056E-05
2	516	115.614153708102	1.41128540039063	1.41082763671875	2.3345947265625E-06	3.29371073348739E-06	604313.75	6.95787530275993E-05
2	517	115.714861707848	1.40121459960938	1.40106201171875	2.28363037109375E-06	3.1995075460145E-06	613524	6.98112999089062E-05
2	518	115.815569707594	1.39114379882813	1.3909912109375	2.2406005859375E-06	3.11665553454077E-06	620811.8125	7.00391101418063E-05
2	519	115.91627770734	1.38107299804688	1.3812255859375	2.2039794921875E-06	3.04419268104539E-06	626696.25	7.0262911322061E-05
2	520	116.016985707085	1.37100219726563	1.370849609375	2.17254638671875E-06	2.97823430628341E-06	630987.5	7.0483292802237E-05
2	521	116.117693706831	1.36093139648438	1.3604736328125	2.1453857421875E-06	2.91874061986164E-06	634139.4375	7.0700712967664E-05
2	522	116.218401706577	1.35086059570313	1.35101318359375	2.1221923828125E-06	2.86710996988404E-06	636612	7.09156010998413E-05
2	523	116.319109706322	1.34078979492188	1.34063720703125	2.10174560546875E-06	2.81767847809533E-06	637868.4375	7.11282991687767E-05
2	524	116.419817706068	1.33071899414063	1.33087158203125	2.08404541015625E-06	2.77359663414245E-06	638600.125	7.13390691089444E-05
2	525	116.520525705814	1.32064819335938	1.32110595703125	2.0684814453125E-06	2.73268301498319E-06	638684	7.15481655788608E-05
2	526	116.62123370556	1.31057739257813	1.3104248046875	2.054443359375E-06	2.69219344772864E-06	637849.125	7.17557704774663E-05
2	527	116.721941705305	1.30050659179688	1.3006591796875	2.0416259765625E-06	2.65545963884506E-06	637070.25	7.19620220479555E-05
2	528	116.822649705051	1.29043579101563	1.29058837890625	2.030029296875E-06	2.6199320473097E-06	635748.6875	7.2167043981608E-05
2	529	116.923357704797	1.28036499023438	1.28021240234375	2.01873779296875E-06	2.58441286860034E-06	634164.8125	7.23709163139574E-05
2	530	117.024065704543	1.27029418945313	1.27044677734375	2.0086669921875E-06	2.55190457210119E-06	632482.5	7.25737118045799E-05
2	531	117.124773704288	1.26022338867188	1.2603759765625	1.99798583984375E-06	2.51821325036872E-06	630823.3125	7.27754668332636E-05
2	532	117.225481704034	1.25015258789063	1.25030517578125	1.9879150390625E-06	2.48550054493535E-06	628953	7.29761741240509E-05
2	533	117.32618970378	1.24008178710938	1.240234375	1.9775390625E-06	2.45261207965086E-06	627160.5	7.31758482288569E-05
2	534	117.426897703526	1.23001098632813	1.22955322265625	1.9671630859375E-06	2.41873181039409E-06	625038.75	7.33744818717241E-05
2	535	117.527605703271	1.21994018554688	1.219482421875	1.95709228515625E-06	2.38663960772101E-06	623109.3125	7.35720823286101E-05
2	536	117.628313703017	1.20986938476563	1.209716796875	1.94671630859375E-06	2.35497554967878E-06	621414	7.37686568754725E-05
2	537	117.729021702763	1.19979858398438	1.20025634765625	1.93634033203125E-06	2.32410479839018E-06	619858.125	7.39641836844385E-05
2	538	117.829729702509	1.18972778320313	1.18988037109375	1.92596435546875E-06	2.2916672151041E-06	617810.1875	7.4158662755508E-05
2	539	117.930437702254	1.17965698242188	1.1798095703125	1.91558837890625E-06	2.26002953240823E-06	615899.3125	7.43521013646387E-05
2	540	118.031145702	1.16958618164063	1.16973876953125	1.9036865234375E-06	2.22681592276786E-06	614459.8125	7.45444194762968E-05
2	541	118.131853701746	1.15951538085938	1.1590576171875	1.89178466796875E-06	2.1926873614575E-06	612679.5	7.47355370549485E-05
2	542	118.232561701491	1.14944458007813	1.14959716796875	1.8792724609375E-06	2.16040621126012E-06	611724.625	7.49254249967635E-05
2	543	118.333269701237	1.13937377929688	1.1395263671875	1.86492919921875E-06	2.12513600672537E-06	611029.3125	7.51139596104622E-05
2	544	118.433977700983	1.12930297851563	1.129150390625	1.849365234375E-06	2.08821143132809E-06	610561.0625	7.53009881009348E-05
2	545	118.534685700729	1.11923217773438	1.119384765625	1.83135986328125E-06	2.049996282949E-06	611231.5	7.54863285692409E-05
2	546	118.635393700474	1.10916137695313	1.10931396484375	1.80938720703125E-06	2.0071784092579E-06	613088.1875	7.56696535972878E-05
2	547	118.73610170022	1.09909057617188	1.09893798828125	1.7828369140625E-06	1.95922712009633E-06	616398.5	7.58505339035764E-05
2	548	118.836809699966	1.08901977539063	1.08917236328125	1.74896240234375E-06	1.90492153251398E-06	622753.4375	7.60283728595823E-05
2	549	118.937517699712	1.07894897460938	1.07879638671875	1.70501708984375E-06	1.83936629127857E-06	632718.8125	7.62022973503917E-05
2	550	119.038225699457	1.06887817382813	1.0687255859375	1.6485595703125E-06	1.76185778855142E-06	648278.4375	7.63711650506593E-05
2	551	119.138933699203	1.05880737304688	1.05865478515625	1.575927734375E-06	1.66836343851173E-06	671766.0625	7.65335280448198E-05
2	552	119.239641698949	1.04873657226563	1.048583984375	1.48345947265625E-06	1.55553175318346E-06	706850.5	7.66875818953849E-05
2	553	119.340349698695	1.03866577148438	1.038818359375	1.37054443359375E-06	1.42374665301759E-06	757960.375	7.68312893342227E-05
2	554	119.44105769844	1.02859497070313	1.0284423828125	1.24053955078125E-06	1.27582336517662E-06	829028.3125	7.69627731642686E-05
2	555	119.541765698186	1.01852416992188	1.01837158203125	1.099853515625E-06	1.12005955088534E-06	925915.625	7.70806218497455E-05
2	556	119.642473697932	1.00845336914063	1.00860595703125	9.59167480468751E-07	9.67422010944574E-07	1051543.125	7.718429696979E-05
2	557	119.743181697678	0.998382568359375	0.99822998046875	8.3343505859375E-07	8.31959823699435E-07	1197729.875	7.72745624999516E-05
2	558	119.843889697423	0.988311767578125	0.98846435546875	7.33337402343751E-07	7.24877907032351E-07	1347898.5	7.73534557083622E-05
2	559	119.944597697169	0.978240966796875	0.97808837890625	6.65893554687499E-07	6.51302741516702E-07	1468836	7.74239160818979E-05
2	560	120.045305696915	0.968170166015625	0.9686279296875	6.28662109375E-07	6.08939672019915E-07	1540776.625	7.74891013861634E-05
2	561	120.14601369666	0.958099365234375	0.958251953125	6.146240234375E-07	5.88964667258551E-07	1559086.375	7.75517037254758E-05
2	562	120.246721696406	0.948028564453125	0.9478759765625	6.10961914062499E-07	5.79116090193565E-07	1551448.625	7.76134183979593E-05
2	563	120.347429696152	0.937957763671875	0.9381103515625	6.072998046875E-07	5.69714245557407E-07	1544723.625	7.76747619966045E-05
2	564	120.448137695898	0.927886962890625	0.92742919921875	5.9417724609375E-07	5.51057269149169E-07	1560863	7.77352615841664E-05
2	565	120.548845695643	0.917816162109375	0.91766357421875	5.65185546875E-07	5.18650153935596E-07	1623650.125	7.7793636592105E-05
2	566	120.649553695389	0.907745361328125	0.908203125	5.1239013671875E-07	4.65354304424181E-07	1772483.75	7.78479006839916E-05
2	567	120.750261695135	0.897674560546875	0.8978271484375	4.2755126953125E-07	3.83867131859006E-07	2099928.5	7.78952307882719E-05
2	568	120.850969694881	0.887603759765625	0.887451171875	3.06396484375E-07	2.71911915206147E-07	2896414.25	7.79321853769943E-05
2	569	120.951677694626	0.877532958984375	0.877685546875	1.4495849609375E-07	1.27227977486655E-07	6054737	7.7954915468581E-05
2	570	121.052385694372	0.867462158203125	0.8673095703125	-5.340576171875E-08	-4.63193252642213E-08	-16240001	7.79595211497508E-05
2	571	121.153093694118	0.857391357421875	0.85662841796875	-2.7801513671875E-07	-2.38155664078477E-07	-3081229.5	7.79428373789415E-05
2	572	121.253801693864	0.847320556640625	0.84747314453125	-5.08728027343749E-07	-4.3113334413647E-07	-1665866.875	7.79032197897322E-05
2	573	121.354509693609	0.837249755859375	0.83740234375	-7.2509765625E-07	-6.07198501256789E-07	-1154882.125	7.78410903876647E-05
2	574	121.455217693355	0.827178955078125	0.8270263671875	-9.033203125E-07	-7.47069691442448E-07	-915540.5625	7.77590976213105E-05
2	575	121.555925693101	0.817108154296875	0.81756591796875	-1.0302734375E-06	-8.42316467242199E-07	-793542.625	7.76617307565175E-05
2	576	121.656633692847	0.807037353515625	0.80718994140625	-1.099853515625E-06	-8.87790690740076E-07	-733906.75	7.75544685893692E-05
2	577	121.757341692592	0.796966552734375	0.797119140625	-1.1181640625E-06	-8.91309980488586E-07	-712882.125	7.74427826399915E-05
2	578	121.858049692338	0.786895751953125	0.78704833984375	-1.09832763671875E-06	-8.64436913161626E-07	-716587.9375	7.73311767261475E-05
2	579	121.958757692084	0.776824951171875	0.77667236328125	-1.0528564453125E-06	-8.17724469470704E-07	-737681.1875	7.72228522691876E-05
2	580	122.059465691829	0.766754150390625	0.7672119140625	-9.95483398437499E-07	-7.63746697884926E-07	-770692.875	7.71197155700065E-05
2	581	122.160173691575	0.756683349609375	0.7568359375	-9.3536376953125E-07	-7.07916910869244E-07	-809135.4375	7.70224869484082E-05
2	582	122.260881691321	0.746612548828125	0.746551513671875	-8.81042480468749E-07	-6.57743612464401E-07	-847350.1875	7.69310208852403E-05
2	583	122.361589691067	0.736541748046875	0.736480712890625	-8.37097167968751E-07	-6.1650592897422E-07	-879803.125	7.68445097492076E-05
2	584	122.462297690812	0.726470947265625	0.726470947265625	-8.056640625E-07	-5.85291559218604E-07	-901704.5625	7.6761789387092E-05
2	585	122.563005690558	0.716400146484375	0.71630859375	-7.91015625E-07	-5.66611277008633E-07	-905555.5625	7.66813900554553E-05
2	586	122.663713690304	0.706329345703125	0.706298828125	-7.904052734375E-07	-5.58262286176614E-07	-893590.75	7.66017619753256E-05
2	587	122.76442169005	0.696258544921875	0.696197509765625	-8.05053710937501E-07	-5.60476337341242E-07	-864783.9375	7.65214208513498E-05
2	588	122.865129689795	0.686187744140625	0.68609619140625	-8.29467773437501E-07	-5.69094652291824E-07	-827152.3125	7.64391152188182E-05
2	589	122.965837689541	0.676116943359375	0.6761474609375	-8.5662841796875E-07	-5.79207096507162E-07	-789312.4375	7.63542120694183E-05
2	590	123.066545689287	0.666046142578125	0.66595458984375	-8.7890625E-07	-5.85311624945462E-07	-757708.375	7.62668205425143E-05
2	591	123.167253689033	0.655975341796875	0.655975341796875	-8.9080810546875E-07	-5.84348128995771E-07	-736382.3125	7.61777118896134E-05
2	592	123.267961688778	0.645904541015625	0.64593505859375	-8.880615234375E-07	-5.7363007499589E-07	-727354	7.60881375754252E-05
2	593	123.368669688524	0.635833740234375	0.6357421875	-8.7158203125E-07	-5.54101461602841E-07	-729411.75	7.59995309635997E-05
2	594	123.46937768827	0.625762939453125	0.62567138671875	-8.441162109375E-07	-5.28139366906544E-07	-741214.75	7.59131435188465E-05
2	595	123.570085688016	0.615692138671875	0.615692138671875	-8.0902099609375E-07	-4.98107851854002E-07	-761033.5625	7.58298992877826E-05
2	596	123.670793687761	0.605621337890625	0.6055908203125	-7.6934814453125E-07	-4.65910147795512E-07	-787148	7.57504240027629E-05
2	597	123.771501687507	0.595550537109375	0.595550537109375	-7.28454589843749E-07	-4.33831502277826E-07	-817553.4375	7.56750014261343E-05
2	598	123.872209687253	0.585479736328125	0.58544921875	-6.89086914062501E-07	-4.03425389094991E-07	-849601.4375	7.56036242819391E-05
2	599	123.972917686998	0.575408935546875	0.575439453125	-6.5155029296875E-07	-3.74927736856989E-07	-883185	7.55361179471947E-05
2	600	124.073625686744	0.565338134765625	0.56536865234375	-6.1614990234375E-07	-3.48351818502124E-07	-917583	7.54722786950879E-05
2	601	124.17433368649	0.555267333984375	0.555206298828125	-5.828857421875E-07	-3.23621833331345E-07	-952513.125	7.54119027988054E-05
2	602	124.275041686236	0.545196533203125	0.545166015625	-5.523681640625E-07	-3.01132331514964E-07	-986961.375	7.53547428757884E-05
2	603	124.375749685981	0.535125732421875	0.535125732421875	-5.2520751953125E-07	-2.8105205274187E-07	-1018884.4375	7.53004787839018E-05
2	604	124.476457685727	0.525054931640625	0.5250244140625	-4.99877929687501E-07	-2.6244811124343E-07	-1050305.375	7.52488631405868E-05
2	605	124.577165685473	0.514984130859375	0.51495361328125	-4.7637939453125E-07	-2.45313287905446E-07	-1080973.75	7.51997067709453E-05
2	606	124.677873685219	0.504913330078125	0.5048828125	-4.55322265624999E-07	-2.29884392410895E-07	-1108847.125	7.51527913962491E-05
2	607	124.778581684964	0.494842529296875	0.49481201171875	-4.35791015625001E-07	-2.15634628375483E-07	-1135434.25	7.51079205656424E-05
2	608	124.87928968471	0.484771728515625	0.484771728515625	-4.180908203125E-07	-2.02678606342488E-07	-1159489	7.50649196561426E-05
2	609	124.979997684456	0.474700927734375	0.47467041015625	-4.02221679687501E-07	-1.90922719411901E-07	-1180121.375	7.50236140447669E-05
2	610	125.080705684202	0.464630126953125	0.464630126953125	-3.875732421875E-07	-1.8007820301591E-07	-1198818.875	7.49838436604477E-05
2	611	125.181413683947	0.454559326171875	0.45458984375	-3.74755859375001E-07	-1.70360195284047E-07	-1213029.375	7.49454629840329E-05
2	612	125.282121683693	0.444488525390625	0.444549560546875	-3.6346435546875E-07	-1.61577915491762E-07	-1223089.875	7.49082901165821E-05
2	613	125.382829683439	0.434417724609375	0.43438720703125	-3.5400390625E-07	-1.53774763589354E-07	-1227069	7.487215771107E-05
2	614	125.483537683185	0.424346923828125	0.424285888671875	-3.45458984374999E-07	-1.46573370329861E-07	-1228180.25	7.48369420762174E-05
2	615	125.58424568293	0.414276123046875	0.41424560546875	-3.3905029296875E-07	-1.40450083563337E-07	-1221782.25	7.4802475864999E-05
2	616	125.684953682676	0.404205322265625	0.4041748046875	-3.33557128906251E-07	-1.34815380192777E-07	-1211710.875	7.4768606282305E-05
2	617	125.785661682422	0.394134521484375	0.394134521484375	-3.2958984375E-07	-1.29902730350295E-07	-1195833.375	7.47352096368559E-05
2	618	125.886369682167	0.384063720703125	0.384063720703125	-3.265380859375E-07	-1.2541143235012E-07	-1176168.25	7.47021767892875E-05
2	619	125.987077681913	0.373992919921875	0.3740234375	-3.24401855468751E-07	-1.21333897595832E-07	-1152963.375	7.46693986002356E-05
2	620	126.087785681659	0.363922119140625	0.36395263671875	-3.23486328125E-07	-1.17733698346001E-07	-1125094.375	7.46367732062936E-05
2	621	126.188493681405	0.353851318359375	0.353912353515625	-3.22570800781249E-07	-1.14161792907908E-07	-1097161.75	7.46042423998006E-05
2	622	126.28920168115	0.343780517578125	0.343780517578125	-3.22570800781249E-07	-1.10893559224223E-07	-1065752.125	7.45717552490532E-05
2	623	126.389909680896	0.333709716796875	0.333648681640625	-3.2196044921875E-07	-1.07421676887043E-07	-1036303.3125	7.45392972021364E-05
2	624	126.490617680642	0.323638916015625	0.32366943359375	-3.21350097656251E-07	-1.04011199653087E-07	-1007217.5	7.4506904638838E-05
2	625	126.591325680388	0.313568115234375	0.3134765625	-3.204345703125E-07	-1.00448723117097E-07	-978285.75	7.44745921110734E-05
2	626	126.692033680133	0.303497314453125	0.303466796875	-3.192138671875E-07	-9.6870806487459E-08	-950669.25	7.44423814467154E-05
2	627	126.792741679879	0.293426513671875	0.29339599609375	-3.1768798828125E-07	-9.32083779048298E-08	-923535.125	7.44103090255521E-05
2	628	126.893449679625	0.283355712890625	0.283294677734375	-3.15246582031251E-07	-8.93076759211908E-08	-898644.75	7.4378440331202E-05
2	629	126.994157679371	0.273284912109375	0.273284912109375	-3.1280517578125E-07	-8.54849275810921E-08	-873658.5625	7.43468190194108E-05
2	630	127.094865679116	0.263214111328125	0.26318359375	-3.08837890624999E-07	-8.12810654338136E-08	-852173.9375	7.43155105737969E-05
2	631	127.195573678862	0.253143310546875	0.253173828125	-3.04260253906249E-07	-7.70307337916165E-08	-832096.3125	7.42846386856399E-05
2	632	127.296281678608	0.243072509765625	0.24310302734375	-2.98461914062501E-07	-7.25569933024417E-08	-814519.4375	7.42542906664312E-05
2	633	127.396989678354	0.233001708984375	0.233062744140625	-2.91748046875E-07	-6.79956002613835E-08	-798849.375	7.42245756555349E-05
2	634	127.497697678099	0.222930908203125	0.222991943359375	-2.850341796875E-07	-6.35603214504954E-08	-782334.125	7.4195530032739E-05
2	635	127.598405677845	0.212860107421875	0.21295166015625	-2.78625488281251E-07	-5.93337610155231E-08	-764293.5	7.41671465220861E-05
2	636	127.699113677591	0.202789306640625	0.20281982421875	-2.72521972656251E-07	-5.5272856513966E-08	-744232.9375	7.41393960197456E-05
2	637	127.799821677336	0.192718505859375	0.192779541015625	-2.67333984375E-07	-5.15365208286767E-08	-721118.75	7.4112213042099E-05
2	638	127.900529677082	0.182647705078125	0.18267822265625	-2.63061523437499E-07	-4.80556074933247E-08	-694431.625	7.40855030016974E-05
2	639	128.001237676828	0.172576904296875	0.172576904296875	-2.6214599609375E-07	-4.52403448036875E-08	-658323.625	7.40590548957698E-05
2	640	128.101945676574	0.162506103515625	0.1624755859375	-2.63061523437499E-07	-4.27410711267839E-08	-617633.4375	7.40326067898422E-05
2	641	128.202653676319	0.152435302734375	0.152435302734375	-2.6702880859375E-07	-4.0704616566245E-08	-570857.125	7.40059185773134E-05
2	642	128.303361676065	0.142364501953125	0.142486572265625	-2.7496337890625E-07	-3.91785910380804E-08	-518202	7.39786264603026E-05
2	643	128.404069675811	0.132293701171875	0.13232421875	-2.8839111328125E-07	-3.81611293676087E-08	-458836	7.39502575015649E-05
2	644	128.504777675557	0.122222900390625	0.122283935546875	-3.08837890624999E-07	-3.77659112871243E-08	-395948.625	7.39201859687455E-05
2	645	128.605485675302	0.112152099609375	0.112152099609375	-3.40576171875E-07	-3.81963296547383E-08	-329301.09375	7.38874878152274E-05
2	646	128.706193675048	0.102081298828125	0.102142333984375	-3.85437011718751E-07	-3.93694357114782E-08	-265003.96875	7.38509261282161E-05
2	647	128.806901674794	0.092010498046875	0.092071533203125	-4.49523925781251E-07	-4.13883576300123E-08	-204820.09375	7.38088856451213E-05
2	648	128.90760967454	0.081939697265625	0.0819091796875	-5.39550781250001E-07	-4.41941594431228E-08	-151809.96875	7.37590817152523E-05
2	649	129.008317674285	0.071868896484375	0.071929931640625	-6.6131591796875E-07	-4.75684061029824E-08	-108767.890625	7.36986112315208E-05
2	650	129.109025674031	0.061798095703125	0.06182861328125	-8.20312500000001E-07	-5.07187856157998E-08	-75372.0234375	7.36240035621449E-05
2	651	129.209733673777	0.051727294921875	0.051788330078125	-1.0198974609375E-06	-5.28187875659114E-08	-50777.9765625	7.35313442419283E-05
2	652	129.310441673523	0.041656494140625	0.0417633056640625	-1.256103515625E-06	-5.24590326733687E-08	-33248.30078125	7.34167406335473E-05
2	653	129.411149673268	0.031585693359375	0.0316864013671875	-1.51702880859375E-06	-4.80691824122914E-08	-20887.146484375	7.32771004550159E-05
2	654	129.511857673014	0.021514892578125	0.0216217041015625	-1.78070068359375E-06	-3.85017813187005E-08	-12142.24609375	7.3111048550345E-05
2	655	129.61256567276	0.011444091796875	0.011541748046875	-2.02178955078125E-06	-2.33349854994458E-08	-5708.6796875	7.29195744497702E-05
2	656	129.713273672505	0.001373291015625	0.0014801025390625	-2.21466064453125E-06	-3.27792459842158E-09	-668.320251464844	7.27062506484799E-05
2	657	129.813981672251	-0.008697509765625	-0.00862731933593749	-2.3443603515625E-06	2.02255456827061E-08	3680.03125	7.24766869097948E-05
2	658	129.914689671997	-0.018768310546875	-0.01865234375	-2.4078369140625E-06	4.49118005008131E-08	7746.51513671875	7.22373952157795E-05
2	659	130.015397671743	-0.028839111328125	-0.02869873046875	-2.41455078125E-06	6.92945363311992E-08	11885.744140625	7.19945674063638E-05
2	660	130.116105671488	-0.038909912109375	-0.03876953125	-2.3797607421875E-06	9.2262204987037E-08	16291.357421875	7.17531584086828E-05
2	661	130.216813671234	-0.048980712890625	-0.0488433837890625	-2.32086181640625E-06	1.13358744613379E-07	21045.365234375	7.15164642315358E-05
2	662	130.31752167098	-0.059051513671875	-0.05902099609375	-2.24945068359375E-06	1.32764810700792E-07	26237.9609375	7.12863256921992E-05
2	663	130.418229670726	-0.069122314453125	-0.06903076171875	-2.17559814453125E-06	1.50183197433762E-07	31729.5546875	7.10635067662224E-05
2	664	130.518937670471	-0.079193115234375	-0.079132080078125	-2.1051025390625E-06	1.66581145322198E-07	37590.60546875	7.08479565219022E-05
2	665	130.619645670217	-0.089263916015625	-0.08917236328125	-2.04132080078125E-06	1.82029410211726E-07	43683.66015625	7.06391729181632E-05
2	666	130.720353669963	-0.099334716796875	-0.099212646484375	-1.98394775390625E-06	1.9683270124915E-07	50007.6953125	7.04364792909473E-05
2	667	130.821061669709	-0.109405517578125	-0.109344482421875	-1.9342041015625E-06	2.11494537438739E-07	56532.03125	7.02391844242811E-05
2	668	130.921769669454	-0.119476318359375	-0.119354248046875	-1.89300537109375E-06	2.25938222797595E-07	63050.13671875	7.00464734109119E-05
2	669	131.0224776692	-0.129547119140625	-0.1295166015625	-1.85760498046875E-06	2.40590679823072E-07	69722.359375	6.98576113791205E-05
2	670	131.123185668946	-0.139617919921875	-0.1395263671875	-1.82891845703125E-06	2.55182328601222E-07	76289.0078125	6.96719798725098E-05
2	671	131.223893668692	-0.149688720703125	-0.14959716796875	-1.80694580078125E-06	2.70313961436841E-07	82790.0703125	6.94889022270218E-05
2	672	131.324601668437	-0.159759521484375	-0.15960693359375	-1.7901611328125E-06	2.85722109083508E-07	89157.8671875	6.93077745381743E-05
2	673	131.425309668183	-0.169830322265625	-0.16973876953125	-1.7779541015625E-06	3.01787736134429E-07	95468.59375	6.91281020408496E-05
2	674	131.526017667929	-0.179901123046875	-0.179718017578125	-1.771240234375E-06	3.18323770898132E-07	101464.515625	6.89493899699301E-05
2	675	131.626725667674	-0.189971923828125	-0.189849853515625	-1.76910400390625E-06	3.35864115186268E-07	107314.1328125	6.87711217324249E-05
2	676	131.72743366742	-0.200042724609375	-0.199920654296875	-1.77154541015625E-06	3.54168520289022E-07	112850.9921875	6.8592831667047E-05
2	677	131.828141667166	-0.189971923828125	-0.189788818359375	-1.561279296875E-06	2.96313345415911E-07	121559.8125	6.84250117046759E-05
