Potential - Start -0.2 V, Upper Vertex 1.5 V, Lower Vertex -0.2 V, Stop -0.19 V; Scan - # end cross 5, Rate 0.1 Vps, Step 0.01 V 
Scan	Index	Time (s)	Potential applied (V)	WE(1).Potential (V)	WE(1).Current (A)	WE(1).Power (W)	WE(1).Resistance (Ω)	WE(1).Charge (C)
1	1	66.0665748331979	-0.189971923828125	-0.1898193359375	-2.25830078125E-07	4.28669153507144E-08	840540.5625	0
1	2	66.1672828329437	-0.179901123046875	-0.179718017578125	-1.904296875E-07	3.42236461392531E-08	943750	-2.09603445711082E-08
1	3	66.2679908326894	-0.169830322265625	-0.169677734375	-1.6357421875E-07	2.77549023763868E-08	1037313.4375	-3.87858563044574E-08
1	4	66.3686988324351	-0.159759521484375	-0.159637451171875	-1.40380859375E-07	2.24100435985974E-08	1137173.875	-5.40912097335422E-08
1	5	66.4694068321809	-0.149688720703125	-0.149566650390625	-1.202392578125E-07	1.79837815750261E-08	1243908.75	-6.72144793156804E-08
1	6	66.5701148319266	-0.139617919921875	-0.139495849609375	-1.007080078125E-07	1.40483491506416E-08	1385151.5	-7.83400508908016E-08
1	7	66.6708228316724	-0.129547119140625	-0.129486083984375	-8.17871093750006E-08	1.05902921987422E-08	1583209	-8.75294148272587E-08
1	8	66.7715308314181	-0.119476318359375	-0.11932373046875	-6.46972656249994E-08	7.71991892634105E-09	1844339.75	-9.49054879129108E-08
1	9	66.8722388311638	-0.109405517578125	-0.10931396484375	-4.54711914062503E-08	4.97063590287894E-09	2404027	-1.00452908213811E-07
1	10	66.9729468309096	-0.099334716796875	-0.099273681640625	-2.593994140625E-08	2.57515342383385E-09	3827059	-1.04048744731244E-07
1	11	67.0736548306553	-0.089263916015625	-0.089202880859375	-3.0517578125E-09	2.72225575415064E-10	29230000	-1.05508590309E-07
1	12	67.174362830401	-0.079193115234375	-0.07916259765625	2.47192382812497E-08	-1.95683913517541E-09	-3202469.25	-1.04417551938241E-07
1	13	67.2750708301468	-0.069122314453125	-0.069091796875	5.85937499999994E-08	-4.04834743505944E-09	-1179166.75	-1.0022240815033E-07
1	14	67.3757788298925	-0.059051513671875	-0.058990478515625	1.019287109375E-07	-6.01282312828744E-09	-578742.5625	-9.21394587294344E-08
1	15	67.4764868296382	-0.048980712890625	-0.048809814453125	1.59606933593751E-07	-7.7903843376248E-09	-305812.625	-7.89700962400275E-08
1	16	67.577194829384	-0.038909912109375	-0.0387969970703125	2.3773193359375E-07	-9.22328524666227E-09	-163196.421875	-5.89624917779474E-08
1	17	67.6779028291297	-0.028839111328125	-0.0287261962890625	3.41186523437501E-07	-9.80099024161518E-09	-84194.9921875	-2.98116340502474E-08
1	18	67.7786108288755	-0.018768310546875	-0.0186553955078125	4.779052734375E-07	-8.91551099613253E-09	-39035.76171875	1.14329115064038E-08
1	19	67.8793188286212	-0.008697509765625	-0.00859680175781249	6.5155029296875E-07	-5.60124879811497E-09	-13194.3798828125	6.830551768644E-08
1	20	67.9800268283669	0.001373291015625	0.00144348144531251	8.62731933593749E-07	1.24533749978895E-09	1673.15185546875	1.44555684755687E-07
1	21	68.0807348281127	0.011444091796875	0.0115509033203125	1.10443115234375E-06	1.27571775365709E-08	10458.6904296875	2.43610202232958E-07
1	22	68.1814428278584	0.021514892578125	0.0215972900390625	1.361083984375E-06	2.93957249652976E-08	15867.7138671875	3.67758758557102E-07
1	23	68.2821508276041	0.031585693359375	0.0316986083984375	1.6064453125E-06	5.09220754452144E-08	19732.142578125	5.17185696935485E-07
1	24	68.3828588273499	0.041656494140625	0.041766357421875	1.8182373046875E-06	7.59411449280378E-08	22970.794921875	6.89632202011126E-07
1	25	68.4835668270956	0.051727294921875	0.0517578125	1.97509765625E-06	1.02226728415644E-07	26205.193359375	8.80641778167046E-07
1	26	68.5842748268414	0.061798095703125	0.0618896484375	2.0672607421875E-06	1.27942044514384E-07	29937.998046875	1.08419067146315E-06
1	27	68.6849828265871	0.071868896484375	0.0718994140625	2.09930419921875E-06	1.5093873173555E-07	34249.1640625	1.29399393244967E-06
1	28	68.7856908263328	0.081939697265625	0.08203125	2.0843505859375E-06	1.70981891756128E-07	39355.78125	1.5046576891109E-06
1	29	68.8863988260786	0.092010498046875	0.092010498046875	2.0361328125E-06	1.873455914847E-07	45188.84765625	1.71214048805268E-06
1	30	68.9871068258243	0.102081298828125	0.102142333984375	1.9696044921875E-06	2.01180000658496E-07	51859.3125	1.91384538084094E-06
1	31	69.08781482557	0.112152099609375	0.112152099609375	1.8951416015625E-06	2.12544094324585E-07	59178.74609375	2.10845087167399E-06
1	32	69.1885228253158	0.122222900390625	0.122222900390625	1.82037353515625E-06	2.22491337353858E-07	67141.65625	2.29554188990733E-06
1	33	69.2892308250615	0.132293701171875	0.132354736328125	1.74896240234375E-06	2.31483454626868E-07	75676.1484375	2.47527214014553E-06
1	34	69.3899388248072	0.142364501953125	0.14239501953125	1.68212890625E-06	2.39526769973963E-07	84651.671875	2.64804134531005E-06
1	35	69.490646824553	0.152435302734375	0.152435302734375	1.6217041015625E-06	2.47204951620006E-07	93996.9921875	2.81440247817955E-06
1	36	69.5913548242987	0.162506103515625	0.162506103515625	1.5673828125E-06	2.54709277669463E-07	103679.90625	2.97498581858235E-06
1	37	69.6920628240445	0.172576904296875	0.172637939453125	1.51885986328125E-06	2.62212836332765E-07	113662.8515625	3.13039049615327E-06
1	38	69.7927708237902	0.182647705078125	0.182647705078125	1.47552490234375E-06	2.69501242655679E-07	123784.90625	3.28116971104464E-06
1	39	69.8934788235359	0.192718505859375	0.1927490234375	1.43707275390625E-06	2.7699434212991E-07	134126.140625	3.42783073392638E-06
1	40	69.9941868232817	0.202789306640625	0.20281982421875	1.402587890625E-06	2.84472605471819E-07	144604.015625	3.57081898982869E-06
1	41	70.0948948230274	0.212860107421875	0.2127685546875	1.3714599609375E-06	2.91803530672041E-07	155140.1875	3.71050327885314E-06
1	42	70.1956028227731	0.222930908203125	0.22296142578125	1.343994140625E-06	2.99658836411254E-07	165894.640625	3.84723716706503E-06
1	43	70.2963108225189	0.233001708984375	0.23297119140625	1.31866455078125E-06	3.07210854089135E-07	176672.0625	3.98131260226364E-06
1	44	70.3970188222646	0.243072509765625	0.24310302734375	1.29638671875E-06	3.15155517682797E-07	187523.546875	4.11299106417573E-06
1	45	70.4977268220103	0.253143310546875	0.253143310546875	1.275634765625E-06	3.22918396022942E-07	198444.984375	4.24250265496084E-06
1	46	70.5984348217561	0.263214111328125	0.263214111328125	1.25762939453125E-06	3.31025802324802E-07	209293.859375	4.37006247011595E-06
1	47	70.6991428215018	0.273284912109375	0.27325439453125	1.240234375E-06	3.38899496910017E-07	220324.796875	4.49584013040294E-06
1	48	70.7998508212476	0.283355712890625	0.2833251953125	1.2249755859375E-06	3.47066446693134E-07	231290.484375	4.61997342426912E-06
1	49	70.9005588209933	0.293426513671875	0.29345703125	1.21124267578125E-06	3.55447667743647E-07	242277.65625	4.7426465243916E-06
1	50	71.001266820739	0.303497314453125	0.30352783203125	1.19842529296875E-06	3.63755418675282E-07	253272.21875	4.86398312204983E-06
1	51	71.1019748204848	0.313568115234375	0.313568115234375	1.18621826171875E-06	3.71960226175361E-07	264342.6875	4.9840591600514E-06
1	52	71.2026828202305	0.323638916015625	0.32366943359375	1.1761474609375E-06	3.80682962486389E-07	275194.625	5.10301379108569E-06
1	53	71.3033908199762	0.333709716796875	0.333770751953125	1.1669921875E-06	3.8950787484282E-07	286009.40625	5.22100026500993E-06
1	54	71.404098819722	0.343780517578125	0.34375	1.158447265625E-06	3.98216258190587E-07	296733.40625	5.33809543412644E-06
1	55	71.5048068194677	0.353851318359375	0.3538818359375	1.1505126953125E-06	4.07145506642337E-07	307586.21875	5.45436068932759E-06
1	56	71.6055148192135	0.363922119140625	0.363922119140625	1.14410400390625E-06	4.16364741795405E-07	318084.84375	5.56990380573552E-06
1	57	71.7062228189592	0.373992919921875	0.3740234375	1.13861083984375E-06	4.25867142439529E-07	328491.03125	5.68484801988234E-06
1	58	71.8069308187049	0.384063720703125	0.38409423828125	1.134033203125E-06	4.35575600477023E-07	338697.53125	5.79928473598557E-06
1	59	71.9076388184507	0.394134521484375	0.394195556640625	1.12945556640625E-06	4.45226362444373E-07	349013.78125	5.91326033827499E-06
1	60	72.0083468181964	0.404205322265625	0.4041748046875	1.1260986328125E-06	4.55140678923271E-07	358916	6.02683667239035E-06
1	61	72.1090548179421	0.414276123046875	0.414215087890625	1.1236572265625E-06	4.65435761043409E-07	368631.1875	6.14012060395908E-06
1	62	72.2097628176879	0.424346923828125	0.424407958984375	1.12152099609375E-06	4.75982432135424E-07	378421.78125	6.25317443336826E-06
1	63	72.3104708174336	0.434417724609375	0.434478759765625	1.119384765625E-06	4.86348881167942E-07	388140.6875	6.36601271253312E-06
1	64	72.4111788171793	0.444488525390625	0.444427490234375	1.11846923828125E-06	4.97078474381851E-07	397353.375	6.47869774184073E-06
1	65	72.5118868169251	0.454559326171875	0.45458984375	1.1181640625E-06	5.08306015944981E-07	406550.21875	6.59132138025598E-06
1	66	72.6125948166708	0.464630126953125	0.464691162109375	1.11846923828125E-06	5.19742741289519E-07	415470.6875	6.70394456392387E-06
1	67	72.7133028164166	0.474700927734375	0.474761962890625	1.119384765625E-06	5.3144128742133E-07	424127.625	6.81662959323148E-06
1	68	72.8140108161623	0.484771728515625	0.484771728515625	1.12152099609375E-06	5.43681665021722E-07	432244.90625	6.9294683271437E-06
1	69	72.914718815908	0.494842529296875	0.49481201171875	1.12335205078125E-06	5.55848089334177E-07	440478.125	7.04250669514295E-06
1	70	73.0154268156538	0.504913330078125	0.504913330078125	1.126708984375E-06	5.68890357044438E-07	448131.09375	7.15580608812161E-06
1	71	73.1161348153995	0.514984130859375	0.51495361328125	1.1309814453125E-06	5.82403004045773E-07	455315.71875	7.26948974261177E-06
1	72	73.2168428151452	0.525054931640625	0.5250244140625	1.1358642578125E-06	5.96356414916954E-07	462224.65625	7.38363451091573E-06
1	73	73.317550814891	0.535125732421875	0.53509521484375	1.142578125E-06	6.11388031757087E-07	468322.65625	7.49836317481822E-06
1	74	73.4182588146367	0.545196533203125	0.545074462890625	1.1517333984375E-06	6.27780480044748E-07	473264.4375	7.61389082981623E-06
1	75	73.5189668143825	0.555267333984375	0.5552978515625	1.16424560546875E-06	6.46503053758352E-07	476959.40625	7.73050942370901E-06
1	76	73.6196748141282	0.565338134765625	0.565338134765625	1.17950439453125E-06	6.66818777972367E-07	479301.4375	7.84852727520047E-06
1	77	73.7203828138739	0.575408935546875	0.57537841796875	1.20025634765625E-06	6.90601552832959E-07	479379.625	7.96835774963256E-06
1	78	73.8210908136197	0.585479736328125	0.58544921875	1.22955322265625E-06	7.19840954843676E-07	476147.9375	8.09070843388326E-06
1	79	73.9217988133654	0.595550537109375	0.595489501953125	1.27044677734375E-06	7.56537701818161E-07	468724.46875	8.21659341454506E-06
1	80	74.0225068131111	0.605621337890625	0.60552978515625	1.329345703125E-06	8.04958403932687E-07	455509.65625	8.34750335343415E-06
1	81	74.1232148128569	0.615692138671875	0.61566162109375	1.41448974609375E-06	8.70847031819721E-07	435253.53125	8.48566651256988E-06
1	82	74.2239228126026	0.625762939453125	0.625762939453125	1.53289794921875E-06	9.59230760599894E-07	408222.1875	8.63407876749989E-06
1	83	74.3246308123483	0.635833740234375	0.635772705078125	1.6949462890625E-06	1.07760058654094E-06	375099.03125	8.79661365615902E-06
1	84	74.4253388120941	0.645904541015625	0.64581298828125	1.9073486328125E-06	1.2317905202508E-06	338592	8.97800327948062E-06
1	85	74.5260468118398	0.655975341796875	0.65594482421875	2.1710205078125E-06	1.42406963732356E-06	302136.625	9.18336627364624E-06
1	86	74.6267548115856	0.666046142578125	0.665985107421875	2.48138427734375E-06	1.65256494710775E-06	268392.59375	9.41763300943421E-06
1	87	74.7274628113313	0.676116943359375	0.676055908203125	2.818603515625E-06	1.90553350876144E-06	239854.921875	9.68450876825955E-06
1	88	74.828170811077	0.686187744140625	0.686065673828125	3.1573486328125E-06	2.16614853343344E-06	217291.703125	9.98542145680403E-06
1	89	74.9288788108228	0.696258544921875	0.6961669921875	3.46588134765625E-06	2.41283214563737E-06	200862.90625	1.0318927706976E-05
1	90	75.0295868105685	0.706329345703125	0.706268310546875	3.7158203125E-06	2.62436606135452E-06	190070.640625	1.06805555333267E-05
1	91	75.1302948103142	0.716400146484375	0.716339111328125	3.88427734375E-06	2.78245966001123E-06	184420.1875	1.10632508949493E-05
1	92	75.23100281006	0.726470947265625	0.7264404296875	3.97003173828125E-06	2.883991555791E-06	182981.015625	1.14587464850047E-05
1	93	75.3317108098057	0.736541748046875	0.736480712890625	3.98406982421875E-06	2.93419043373433E-06	184856.375	1.18592670332873E-05
1	94	75.4324188095515	0.746612548828125	0.746490478515625	3.94866943359375E-06	2.94764413411031E-06	189048.609375	1.22587125588325E-05
1	95	75.5331268092972	0.756683349609375	0.7568359375	3.885498046875E-06	2.94068445327866E-06	194784.8125	1.26531940622954E-05
1	96	75.6338348090429	0.766754150390625	0.76690673828125	3.81683349609375E-06	2.92715503746876E-06	200927.5	1.304103716393E-05
1	97	75.7345428087887	0.776824951171875	0.77728271484375	3.7591552734375E-06	2.92192635242827E-06	206770.59375	1.34225183501258E-05
1	98	75.8352508085344	0.786895751953125	0.7867431640625	3.724365234375E-06	2.93011885332817E-06	211242.21875	1.37993438329431E-05
1	99	75.9359588082801	0.796966552734375	0.797119140625	3.724365234375E-06	2.96876282845915E-06	214028.1875	1.41744167194702E-05
1	100	76.0366668080259	0.807037353515625	0.806884765625	3.7677001953125E-06	3.04009972751373E-06	214158.4375	1.45516723932815E-05
1	101	76.1373748077716	0.817108154296875	0.8172607421875	3.858642578125E-06	3.15351712742995E-06	211800.0625	1.49356892507058E-05
1	102	76.2380828075173	0.827178955078125	0.82733154296875	3.99749755859375E-06	3.30725583808089E-06	206962.359375	1.53312776092207E-05
1	103	76.3387908072631	0.837249755859375	0.83770751953125	4.1754150390625E-06	3.49777656083461E-06	200628.5625	1.57428166858153E-05
1	104	76.4394988070088	0.847320556640625	0.84716796875	4.37530517578125E-06	3.70661837223452E-06	193624.890625	1.61733787535923E-05
1	105	76.5402068067546	0.857391357421875	0.85784912109375	4.573974609375E-06	3.92377978641889E-06	187550.046875	1.66240115504479E-05
1	106	76.6409148065003	0.867462158203125	0.867919921875	4.74609375E-06	4.11922928833519E-06	182870.375	1.70933144545415E-05
1	107	76.741622806246	0.877532958984375	0.87799072265625	4.87152099609375E-06	4.27715031037224E-06	180229.28125	1.75775985553628E-05
1	108	76.8423308059918	0.887603759765625	0.88775634765625	4.94384765625E-06	4.38893221144099E-06	179567.90625	1.80718416231684E-05
1	109	76.9430388057375	0.897674560546875	0.89813232421875	4.962158203125E-06	4.45667456006049E-06	180996.3125	1.8570650354377E-05
1	110	77.0437468054832	0.907745361328125	0.9075927734375	4.9468994140625E-06	4.48977016276331E-06	183467	1.9069610061706E-05
1	111	77.144454805229	0.917816162109375	0.91827392578125	4.9078369140625E-06	4.50673860541428E-06	187103.609375	1.95658358279616E-05
1	112	77.2451628049747	0.927886962890625	0.927734375	4.87335205078125E-06	4.52117592431023E-06	190368.84375	2.00583581317915E-05
1	113	77.3458708047204	0.937957763671875	0.93841552734375	4.85809326171875E-06	4.55890994999208E-06	193165.40625	2.05483738682233E-05
1	114	77.4465788044662	0.948028564453125	0.94818115234375	4.8797607421875E-06	4.62689695268637E-06	194308.953125	2.10387152037583E-05
1	115	77.5472868042119	0.958099365234375	0.958251953125	4.9560546875E-06	4.74914895676193E-06	193349.765625	2.15339878195664E-05
1	116	77.6479948039577	0.968170166015625	0.968017578125	5.096435546875E-06	4.93343895868747E-06	189940.125	2.20401707338169E-05
1	117	77.7487028037034	0.978240966796875	0.97808837890625	5.3131103515625E-06	5.19669129062095E-06	184089.609375	2.25643325393321E-05
1	118	77.8494108034491	0.988311767578125	0.9881591796875	5.60302734375E-06	5.53668269276386E-06	176361.65625	2.31140038522426E-05
1	119	77.9501188031949	0.998382568359375	0.99884033203125	5.95703125E-06	5.95012306803255E-06	167674.1875	2.36960986512713E-05
1	120	78.0508268029406	1.00845336914063	1.00830078125	6.34765625E-06	6.4003465922724E-06	158846.15625	2.43156882788753E-05
1	121	78.1515348026863	1.01852416992188	1.01837158203125	6.73828125E-06	6.86207386024762E-06	151132.25	2.49746190092992E-05
1	122	78.2522428024321	1.02859497070313	1.02813720703125	7.086181640625E-06	7.28556688045501E-06	145090.4375	2.56707353400998E-05
1	123	78.3529508021778	1.03866577148438	1.03851318359375	7.3577880859375E-06	7.64115975471213E-06	141144.75	2.63980473391712E-05
1	124	78.4536588019236	1.04873657226563	1.04888916015625	7.5225830078125E-06	7.89035584602971E-06	139432.046875	2.71473327302374E-05
1	125	78.5543668016693	1.05880737304688	1.05926513671875	7.5775146484375E-06	8.02659724286059E-06	139790.578125	2.79076830338454E-05
1	126	78.655074801415	1.06887817382813	1.06842041015625	7.53173828125E-06	8.04706269263988E-06	141855.765625	2.86684953607619E-05
1	127	78.7557828011608	1.07894897460938	1.0784912109375	7.4127197265625E-06	7.99455301603302E-06	145491.96875	2.942100763903E-05
1	128	78.8564908009065	1.08901977539063	1.0894775390625	7.2509765625E-06	7.89977639215067E-06	150252.53125	3.01593845506432E-05
1	129	78.9571988006522	1.09909057617188	1.0986328125	7.0709228515625E-06	7.76834713178687E-06	155373.328125	3.088055018452E-05
1	130	79.057906800398	1.10916137695313	1.10931396484375	6.8878173828125E-06	7.64075139159104E-06	161054.5	3.15834258799441E-05
1	131	79.1586148001437	1.11923217773438	1.1187744140625	6.7108154296875E-06	7.50788831282989E-06	166712.140625	3.22681735269725E-05
1	132	79.2593227998894	1.12930297851563	1.12945556640625	6.54296875E-06	7.38999233362847E-06	172621.28125	3.29355534631759E-05
1	133	79.3600307996352	1.13937377929688	1.1395263671875	6.3934326171875E-06	7.28548502593185E-06	178233.890625	3.35869517584797E-05
1	134	79.4607387993809	1.14944458007813	1.15020751953125	6.2591552734375E-06	7.1993276833382E-06	183764.015625	3.42240600730292E-05
1	135	79.5614467991267	1.15951538085938	1.15936279296875	6.134033203125E-06	7.11156963006943E-06	189004.984375	3.48481080436613E-05
1	136	79.6621547988724	1.16958618164063	1.16943359375	6.024169921875E-06	7.0448663791467E-06	194123.625	3.5460321669234E-05
1	137	79.7628627986181	1.17965698242188	1.1798095703125	5.926513671875E-06	6.99215752320015E-06	199073.125	3.60620870196726E-05
1	138	79.8635707983639	1.18972778320313	1.18988037109375	5.8349609375E-06	6.94290520186769E-06	203922.609375	3.66543245036155E-05
1	139	79.9642787981096	1.19979858398438	1.19964599609375	5.755615234375E-06	6.90470051267766E-06	208430.546875	3.72379545297008E-05
1	140	80.0649867978553	1.20986938476563	1.20941162109375	5.6854248046875E-06	6.87601868776255E-06	212721.421875	3.78140575776342E-05
1	141	80.1656947976011	1.21994018554688	1.2200927734375	5.6182861328125E-06	6.85483018969535E-06	217164.578125	3.83832448278554E-05
1	142	80.2664027973468	1.23001098632813	1.23016357421875	5.560302734375E-06	6.8400818236114E-06	221240.390625	3.89461310987826E-05
1	143	80.3671107970926	1.24008178710938	1.2396240234375	5.50537109375E-06	6.8245904003561E-06	225166.296875	3.95033312088344E-05
1	144	80.4678187968383	1.25015258789063	1.24969482421875	5.45654296875E-06	6.81901337884483E-06	229026.84375	4.0055310819298E-05
1	145	80.568526796584	1.26022338867188	1.26068115234375	5.413818359375E-06	6.82509835314704E-06	232863.59375	4.06026738346554E-05
1	146	80.6692347963298	1.27029418945313	1.27044677734375	5.3741455078125E-06	6.82756581227295E-06	236399.765625	4.11458931921516E-05
1	147	80.7699427960755	1.28036499023438	1.280517578125	5.3375244140625E-06	6.83479356666794E-06	239908.53125	4.16852672060486E-05
1	148	80.8706507958212	1.29043579101563	1.290283203125	5.303955078125E-06	6.84360384184401E-06	243268.140625	4.22211087425239E-05
1	149	80.971358795567	1.30050659179688	1.300048828125	5.2764892578125E-06	6.85969325786573E-06	246385.203125	4.27538761869073E-05
1	150	81.0720667953127	1.31057739257813	1.31072998046875	5.2490234375E-06	6.88005184201756E-06	249709.3125	4.32838787673973E-05
1	151	81.1727747950584	1.32064819335938	1.3201904296875	5.2276611328125E-06	6.90150773152709E-06	252539.40625	4.38114220742136E-05
1	152	81.2734827948042	1.33071899414063	1.33087158203125	5.206298828125E-06	6.92891489961767E-06	255627.203125	4.43368116975762E-05
1	153	81.3741907945499	1.34078979492188	1.34063720703125	5.1910400390625E-06	6.9593011176039E-06	258259.859375	4.48603605036624E-05
1	154	81.4748987942957	1.35086059570313	1.35101318359375	5.1788330078125E-06	6.99667134540505E-06	260872.125	4.53825232398231E-05
1	155	81.5756067940414	1.36093139648438	1.36077880859375	5.169677734375E-06	7.03478735886165E-06	263223.15625	4.59036127722356E-05
1	156	81.6763147937871	1.37100219726563	1.370849609375	5.1605224609375E-06	7.07430035618017E-06	265641.625	4.642378189601E-05
1	157	81.7770227935329	1.38107299804688	1.3818359375	5.157470703125E-06	7.12677820047247E-06	267929	4.69433325633872E-05
1	158	81.8777307932786	1.39114379882813	1.39129638671875	5.1544189453125E-06	7.17132434147061E-06	269923.03125	4.74625776405446E-05
1	159	81.9784387930243	1.40121459960938	1.4013671875	5.1513671875E-06	7.21895685273921E-06	272037.90625	4.79815171274822E-05
1	160	82.0791467927701	1.41128540039063	1.41143798828125	5.1544189453125E-06	7.27514270693064E-06	273830.6875	4.8500452976441E-05
1	161	82.1798547925158	1.42135620117188	1.42120361328125	5.157470703125E-06	7.32981607143302E-06	275562.125	4.90196980535984E-05
1	162	82.2805627922615	1.43142700195313	1.43157958984375	5.16357421875E-06	7.39206780053792E-06	277245.84375	4.95394051540643E-05
1	163	82.3812707920073	1.44149780273438	1.441650390625	5.17578125E-06	7.46166688259109E-06	278537.75	5.00600326631684E-05
1	164	82.481978791753	1.45156860351563	1.4520263671875	5.1910400390625E-06	7.53752647142392E-06	279717.84375	5.05820426042192E-05
1	165	82.5826867914988	1.46163940429688	1.4617919921875	5.218505859375E-06	7.6283695307211E-06	280116.96875	5.11062062287237E-05
1	166	82.6833947912445	1.47171020507813	1.4715576171875	5.255126953125E-06	7.7332215369097E-06	280023.25	5.16335931024514E-05
1	167	82.7841027909902	1.48178100585938	1.48223876953125	5.303955078125E-06	7.861727681302E-06	279459.15625	5.21652873430867E-05
1	168	82.884810790736	1.49185180664063	1.49169921875	5.37109375E-06	8.01205624156864E-06	277727.28125	5.27028169017285E-05
1	169	82.9855187904817	1.50192260742188	1.50177001953125	5.4534912109375E-06	8.1898897406063E-06	275377.71875	5.3247877076501E-05
1	170	83.0862267902274	1.49185180664063	1.49169921875	5.1513671875E-06	7.68428981245961E-06	289573.46875	5.37818741577212E-05
1	171	83.1869347899732	1.48178100585938	1.48162841796875	4.92645263671875E-06	7.29917246644618E-06	300749.5625	5.42893358215224E-05
1	172	83.2876427897189	1.47171020507813	1.4715576171875	4.74884033203125E-06	6.98819212630042E-06	309877.28125	5.47765230294317E-05
1	173	83.3883507894647	1.46163940429688	1.4617919921875	4.60296630859375E-06	6.72857913741609E-06	317576.0625	5.52474230062217E-05
1	174	83.4890587892104	1.45156860351563	1.45111083984375	4.47998046875E-06	6.50094807497226E-06	323910.09375	5.57047860638704E-05
1	175	83.5897667889561	1.44149780273438	1.441650390625	4.376220703125E-06	6.30898011877434E-06	329428.1875	5.61507331440225E-05
1	176	83.6904747887019	1.43142700195313	1.43157958984375	4.287109375E-06	6.137338004919E-06	333926.53125	5.65869668207597E-05
1	177	83.7911827884476	1.42135620117188	1.4215087890625	4.20867919921875E-06	5.98267433815636E-06	337756.53125	5.70147640246432E-05
1	178	83.8918907881933	1.41128540039063	1.4111328125	4.1400146484375E-06	5.84211011300795E-06	340852.15625	5.74351543036755E-05
1	179	83.9925987879391	1.40121459960938	1.40106201171875	4.07867431640625E-06	5.71447526453994E-06	343509.1875	5.7848996220855E-05
1	180	84.0933067876848	1.39114379882813	1.3909912109375	4.02252197265625E-06	5.59529235033551E-06	345800.78125	5.82569227844942E-05
1	181	84.1940147874305	1.38107299804688	1.38092041015625	3.9727783203125E-06	5.48609068573569E-06	347595.625	5.8659519709181E-05
1	182	84.2947227871763	1.37100219726563	1.37054443359375	3.92608642578125E-06	5.38087579116109E-06	349086.6875	5.90572599321604E-05
1	183	84.395430786922	1.36093139648438	1.36138916015625	3.883056640625E-06	5.28635109731113E-06	350597.28125	5.94504817854613E-05
1	184	84.4961387866678	1.35086059570313	1.3507080078125	3.8427734375E-06	5.19046488989261E-06	351493.03125	5.98395054112189E-05
1	185	84.5968467864135	1.34078979492188	1.34002685546875	3.80523681640625E-06	5.09911933477269E-06	352153.34375	6.022461457178E-05
1	186	84.6975547861592	1.33071899414063	1.33056640625	3.76953125E-06	5.01561135024531E-06	352979.28125	6.06060348218307E-05
1	187	84.798262785905	1.32064819335938	1.32049560546875	3.736572265625E-06	4.93412699142937E-06	353397.59375	6.09839989920147E-05
1	188	84.8989707856507	1.31057739257813	1.31103515625	3.70513916015625E-06	4.85756754642352E-06	353842.375	6.13587180851027E-05
1	189	84.9996787853964	1.30050659179688	1.3006591796875	3.67462158203125E-06	4.77943012811011E-06	353957.3125	6.17303157923743E-05
1	190	85.1003867851422	1.29043579101563	1.290283203125	3.64654541015625E-06	4.70507620775606E-06	353837.15625	6.20989667368121E-05
1	191	85.2010947848879	1.28036499023438	1.280517578125	3.6181640625E-06	4.63312244392E-06	353913.65625	6.24647727818228E-05
1	192	85.3018027846337	1.27029418945313	1.26983642578125	3.59161376953125E-06	4.56076168120489E-06	353555.96875	6.28278139629401E-05
1	193	85.4025107843794	1.26022338867188	1.2603759765625	3.5662841796875E-06	4.49485878561973E-06	353414.34375	6.31882430752739E-05
1	194	85.5032187841251	1.25015258789063	1.25	3.54156494140625E-06	4.42695591118536E-06	352951.3125	6.35461547062732E-05
1	195	85.6039267838709	1.24008178710938	1.240234375	3.51837158203125E-06	4.36360505773337E-06	352502.40625	6.39016507193446E-05
1	196	85.7046347836166	1.23001098632813	1.23016357421875	3.49517822265625E-06	4.29964075010503E-06	351960.1875	6.42548111500219E-05
1	197	85.8053427833623	1.21994018554688	1.2200927734375	3.47320556640625E-06	4.2376327655802E-06	351287.25	6.46056942059658E-05
1	198	85.9060507831081	1.20986938476563	1.21002197265625	3.45123291015625E-06	4.17606725022779E-06	350605.71875	6.49543653707951E-05
1	199	86.0067587828538	1.19979858398438	1.199951171875	3.42926025390625E-06	4.11494465879514E-06	349915.46875	6.53008319204673E-05
1	200	86.1074667825995	1.18972778320313	1.1895751953125	3.40667724609375E-06	4.05249875257141E-06	349189.28125	6.56450429232791E-05
1	201	86.2081747823453	1.17965698242188	1.1798095703125	3.3843994140625E-06	3.99294685848872E-06	348602.34375	6.59870056551881E-05
1	202	86.308882782091	1.16958618164063	1.1700439453125	3.3599853515625E-06	3.93133041143301E-06	348228.90625	6.63266109768301E-05
1	203	86.4095907818368	1.15951538085938	1.1602783203125	3.33343505859375E-06	3.86771216653869E-06	348072.875	6.66636478854343E-05
1	204	86.5102987815825	1.14944458007813	1.1492919921875	3.3026123046875E-06	3.79566563424305E-06	347994.84375	6.69978035148233E-05
1	205	86.6110067813282	1.13937377929688	1.13983154296875	3.26629638671875E-06	3.7230274756439E-06	348967.59375	6.73285758239217E-05
1	206	86.711714781074	1.12930297851563	1.12945556640625	3.2220458984375E-06	3.63915751222521E-06	350539.90625	6.76552881486714E-05
1	207	86.8124227808197	1.11923217773438	1.119384765625	3.1658935546875E-06	3.54385292666848E-06	353576.25	6.79769436828792E-05
1	208	86.9131307805654	1.10916137695313	1.10931396484375	3.0914306640625E-06	3.42936732522503E-06	358835.125	6.82920290273614E-05
1	209	87.0138387803112	1.09909057617188	1.09893798828125	2.9931640625E-06	3.28930150317319E-06	367149.28125	6.85984123265371E-05
1	210	87.1145467800569	1.08901977539063	1.08917236328125	2.86041259765625E-06	3.11548228637548E-06	380774.59375	6.88931613694876E-05
1	211	87.2152547798026	1.07894897460938	1.0791015625	2.68402099609375E-06	2.8963311251573E-06	402046.625	6.91723471391015E-05
1	212	87.3159627795484	1.06887817382813	1.0693359375	2.45086669921875E-06	2.62079970525519E-06	436309.34375	6.94309055688791E-05
1	213	87.4166707792941	1.05880737304688	1.05804443359375	2.15301513671875E-06	2.27798545893165E-06	491424.5625	6.96627321303822E-05
1	214	87.5173787790399	1.04873657226563	1.048583984375	1.78558349609375E-06	1.87233422366262E-06	587250.0625	6.9861052907072E-05
1	215	87.6180867787856	1.03866577148438	1.03851318359375	1.3568115234375E-06	1.40906661272311E-06	765407.125	7.00192904332653E-05
1	216	87.7187947785313	1.02859497070313	1.0284423828125	8.85009765625E-07	9.10181540803023E-07	1162069	7.01321696396917E-05
1	217	87.8195027782771	1.01852416992188	1.0186767578125	4.0252685546875E-07	4.10044719956204E-07	2530705.25	7.01970056979917E-05
1	218	87.9202107780228	1.00845336914063	1.0089111328125	-5.31005859375003E-08	-5.35737711970796E-08	-19000000	7.02145989635028E-05
1	219	88.0209187777685	0.998382568359375	0.99884033203125	-4.376220703125E-07	-4.37114550777551E-07	-2282427	7.0189889811445E-05
1	220	88.1216267775143	0.988311767578125	0.98846435546875	-7.24182128906251E-07	-7.15828207376035E-07	-1364939	7.0131391112227E-05
1	221	88.22233477726	0.978240966796875	0.9783935546875	-8.9752197265625E-07	-8.7812969695733E-07	-1090105.5	7.0049733039923E-05
1	222	88.3230427770058	0.968170166015625	0.96832275390625	-9.6405029296875E-07	-9.33511842049484E-07	-1004431.8125	6.99559896020219E-05
1	223	88.4237507767515	0.958099365234375	0.958251953125	-9.4207763671875E-07	-9.02747729014663E-07	-1017168.75	6.98600124451332E-05
1	224	88.5244587764972	0.948028564453125	0.94818115234375	-8.65783691406249E-07	-8.20919751731708E-07	-1095171	6.97689756634645E-05
1	225	88.625166776243	0.937957763671875	0.93780517578125	-7.611083984375E-07	-7.13771385107975E-07	-1232157.25	6.96870556566864E-05
1	226	88.7258747759887	0.927886962890625	0.9283447265625	-6.549072265625E-07	-6.07979643518775E-07	-1417521.125	6.9615758548025E-05
1	227	88.8265827757344	0.917816162109375	0.91766357421875	-5.633544921875E-07	-5.16969919317489E-07	-1628927.375	6.95544076734222E-05
1	228	88.9272907754802	0.907745361328125	0.90789794921875	-5.02624511718749E-07	-4.56331775922081E-07	-1806314.5	6.95007329341024E-05
1	229	89.0279987752259	0.897674560546875	0.89813232421875	-4.8828125E-07	-4.38541150060701E-07	-1839375.125	6.9450841692742E-05
1	230	89.1287067749716	0.887603759765625	0.887451171875	-5.30395507812501E-07	-4.70700086907527E-07	-1673187.625	6.9399546191562E-05
1	231	89.2294147747174	0.877532958984375	0.87738037109375	-6.32324218749999E-07	-5.54788869067124E-07	-1387548.25	6.93409965606406E-05
1	232	89.3301227744631	0.867462158203125	0.86761474609375	-7.84912109374999E-07	-6.81001324664976E-07	-1105365.5	6.92696339683607E-05
1	233	89.4308307742089	0.857391357421875	0.8575439453125	-9.7015380859375E-07	-8.31949535040621E-07	-883925.75	6.91812601871789E-05
1	234	89.5315387739546	0.847320556640625	0.84747314453125	-1.1566162109375E-06	-9.80201207312348E-07	-732717.6875	6.90741653670557E-05
1	235	89.6322467737003	0.837249755859375	0.83740234375	-1.31988525390625E-06	-1.10527491870016E-06	-634450.875	6.89494627295062E-05
1	236	89.7329547734461	0.827178955078125	0.82733154296875	-1.43585205078125E-06	-1.18792570447113E-06	-576195.5625	6.88107029418461E-05
1	237	89.8336627731918	0.817108154296875	0.8172607421875	-1.49566650390625E-06	-1.22234939681221E-06	-546419.125	6.86630883137695E-05
1	238	89.9343707729375	0.807037353515625	0.806884765625	-1.4996337890625E-06	-1.21003165531874E-06	-538054.5625	6.85122649883851E-05
1	239	90.0350787726833	0.796966552734375	0.79681396484375	-1.46240234375E-06	-1.16526257443184E-06	-544866.4375	6.8363115133252E-05
1	240	90.135786772429	0.786895751953125	0.78704833984375	-1.40106201171875E-06	-1.10270343611774E-06	-561751.3125	6.82189274812117E-05
1	241	90.2364947721748	0.776824951171875	0.7769775390625	-1.33270263671875E-06	-1.03547995422559E-06	-583008.9375	6.8081273639109E-05
1	242	90.3372027719205	0.766754150390625	0.7672119140625	-1.2750244140625E-06	-9.78213847702136E-07	-601723.3125	6.79499644320458E-05
1	243	90.4379107716662	0.756683349609375	0.75653076171875	-1.241455078125E-06	-9.3919891241967E-07	-609390.375	6.78232463542372E-05
1	244	90.538618771412	0.746612548828125	0.74652099609375	-1.24481201171875E-06	-9.29278257899568E-07	-599705.8125	6.76980562275276E-05
1	245	90.6393267711577	0.736541748046875	0.736480712890625	-1.29486083984375E-06	-9.53639982981258E-07	-568772.125	6.75701739965007E-05
1	246	90.7400347709034	0.726470947265625	0.726409912109375	-1.39923095703125E-06	-1.01641512628703E-06	-519149.4375	6.74345137667842E-05
1	247	90.8407427706492	0.716400146484375	0.716339111328125	-1.56280517578125E-06	-1.11949839265435E-06	-458367.53125	6.72853639116511E-05
1	248	90.9414507703949	0.706329345703125	0.706298828125	-1.77947998046875E-06	-1.25684459817421E-06	-396913.0625	6.71170637360774E-05
1	249	91.0421587701406	0.696258544921875	0.69622802734375	-2.03582763671875E-06	-1.41740019898862E-06	-341987.71875	6.69249493512325E-05
1	250	91.1428667698864	0.686187744140625	0.68609619140625	-2.30316162109375E-06	-1.58019042828528E-06	-297893.1875	6.67064596200362E-05
1	251	91.2435747696321	0.676116943359375	0.676055908203125	-2.54852294921875E-06	-1.72294392086769E-06	-265273.625	6.64621620671824E-05
1	252	91.3442827693779	0.666046142578125	0.665924072265625	-2.7392578125E-06	-1.82413771199208E-06	-243103.84375	6.61958983982913E-05
1	253	91.4449907691236	0.655975341796875	0.65594482421875	-2.85614013671875E-06	-1.87347029623197E-06	-229661.296875	6.59141514915973E-05
1	254	91.5456987688693	0.645904541015625	0.645782470703125	-2.88848876953125E-06	-1.8653354345588E-06	-223571.046875	6.56248812447302E-05
1	255	91.6464067686151	0.635833740234375	0.635833740234375	-2.84759521484375E-06	-1.81059704118525E-06	-223287.96875	6.533604755532E-05
1	256	91.7471147683608	0.625762939453125	0.625732421875	-2.75360107421875E-06	-1.72301736256486E-06	-227241.5	6.50540096103214E-05
1	257	91.8478227681065	0.615692138671875	0.615631103515625	-2.6263427734375E-06	-1.61685818511614E-06	-234406.234375	6.47831038804725E-05
1	258	91.9485307678523	0.605621337890625	0.60565185546875	-2.48321533203125E-06	-1.50396385834028E-06	-243898.25	6.45258187432773E-05
1	259	92.049238767598	0.595550537109375	0.59552001953125	-2.33734130859375E-06	-1.39193355153111E-06	-254785.21875	6.42830855213106E-05
1	260	92.1499467673437	0.585479736328125	0.58544921875	-2.196044921875E-06	-1.28567273804947E-06	-266592.5625	6.40548096271232E-05
1	261	92.2506547670895	0.575408935546875	0.57537841796875	-2.0635986328125E-06	-1.18735010801174E-06	-278822.8125	6.38403216726147E-05
1	262	92.3513627668352	0.565338134765625	0.565399169921875	-1.942138671875E-06	-1.09808354409324E-06	-291121.9375	6.36386175756343E-05
1	263	92.452070766581	0.555267333984375	0.55523681640625	-1.8304443359375E-06	-1.01633008853241E-06	-303334.46875	6.34486495982856E-05
1	264	92.5527787663267	0.545196533203125	0.545166015625	-1.729736328125E-06	-9.42993438002304E-07	-315172.90625	6.32693845545873E-05
1	265	92.6534867660724	0.535125732421875	0.535003662109375	-1.63726806640625E-06	-8.75944408562646E-07	-326766.09375	6.30998401902616E-05
1	266	92.7541947658182	0.525054931640625	0.5250244140625	-1.55364990234375E-06	-8.15704140677553E-07	-337929.6875	6.29391652182676E-05
1	267	92.8549027655639	0.514984130859375	0.514892578125	-1.4776611328125E-06	-7.60836712743185E-07	-348451.0625	6.27865229034796E-05
1	268	92.9556107653096	0.504913330078125	0.50482177734375	-1.40869140625E-06	-7.11138056885829E-07	-358362.25	6.26411856501363E-05
1	269	93.0563187650554	0.494842529296875	0.494873046875	-1.34429931640625E-06	-6.65257516629936E-07	-368127.125	6.25025641056709E-05
1	270	93.1570267648011	0.484771728515625	0.484771728515625	-1.2860107421875E-06	-6.23421669843083E-07	-376957.75	6.23701125732623E-05
1	271	93.2577347645469	0.474700927734375	0.47467041015625	-1.231689453125E-06	-5.8464655694479E-07	-385381.5625	6.22433362877928E-05
1	272	93.3584427642926	0.464630126953125	0.464569091796875	-1.1810302734375E-06	-5.48670129774109E-07	-393359.1875	6.21218496235088E-05
1	273	93.4591507640383	0.454559326171875	0.454620361328125	-1.134033203125E-06	-5.15554575031274E-07	-400888.0625	6.20052742306143E-05
1	274	93.5598587637841	0.444488525390625	0.444549560546875	-1.090087890625E-06	-4.8459804702361E-07	-407810.78125	6.18932826910168E-05
1	275	93.6605667635298	0.434417724609375	0.434417724609375	-1.04949951171875E-06	-4.5592116748594E-07	-413928.46875	6.17855475866236E-05
1	276	93.7612747632755	0.424346923828125	0.42431640625	-1.0113525390625E-06	-4.29133478974109E-07	-419553.40625	6.16817706031725E-05
1	277	93.8619827630213	0.414276123046875	0.414306640625	-9.7564697265625E-07	-4.04216990546047E-07	-424648.125	6.15817189100198E-05
1	278	93.962690762767	0.404205322265625	0.404205322265625	-9.417724609375E-07	-3.80669433752701E-07	-429196.375	6.14851742284372E-05
1	279	94.0633987625127	0.394134521484375	0.3941650390625	-9.0972900390625E-07	-3.58583349679975E-07	-433277.4375	6.13919401075691E-05
1	280	94.1641067622585	0.384063720703125	0.384063720703125	-8.79821777343751E-07	-3.37907607672605E-07	-436524.46875	6.13018273725174E-05
1	281	94.2648147620042	0.373992919921875	0.3740234375	-8.5113525390625E-07	-3.18344518746017E-07	-439440.6875	6.12146686762571E-05
1	282	94.36552276175	0.363922119140625	0.363983154296875	-8.23974609375E-07	-2.99912869650143E-07	-441740.75	6.11303184996359E-05
1	283	94.4662307614957	0.353851318359375	0.353851318359375	-7.9833984375E-07	-2.8249360184418E-07	-443233.9375	6.10486313235015E-05
1	284	94.5669387612414	0.343780517578125	0.343780517578125	-7.7362060546875E-07	-2.65955691247655E-07	-444378.71875	6.09694761806168E-05
1	285	94.6676467609872	0.333709716796875	0.333740234375	-7.50122070312501E-07	-2.50345919994288E-07	-444914.5625	6.08927475695964E-05
1	286	94.7683547607329	0.323638916015625	0.323638916015625	-7.2784423828125E-07	-2.35558715644402E-07	-444654.09375	6.08183290751185E-05
1	287	94.8690627604786	0.313568115234375	0.313568115234375	-7.07397460937501E-07	-2.21817273882152E-07	-443270.09375	6.07460569881368E-05
1	288	94.9697707602244	0.303497314453125	0.303436279296875	-6.87561035156251E-07	-2.08630950737643E-07	-441322.71875	6.06758148933295E-05
1	289	95.0704787599701	0.293426513671875	0.293426513671875	-6.6864013671875E-07	-1.96196737078935E-07	-438840.75	6.06075263931416E-05
1	290	95.1711867597159	0.283355712890625	0.2833251953125	-6.50634765624999E-07	-1.8434121784594E-07	-435459.65625	6.05410932621453E-05
1	291	95.2718947594616	0.273284912109375	0.27325439453125	-6.33850097656249E-07	-1.73202323594523E-07	-431102.53125	6.04764172749128E-05
1	292	95.3726027592073	0.263214111328125	0.26324462890625	-6.1798095703125E-07	-1.62680166226892E-07	-425975.3125	6.04133820161223E-05
1	293	95.4733107589531	0.253143310546875	0.25311279296875	-6.0302734375E-07	-1.52633930383672E-07	-419736.84375	6.03518965363037E-05
1	294	95.5740187586988	0.243072509765625	0.24310302734375	-5.8868408203125E-07	-1.43110881367647E-07	-412960.09375	6.02918917138595E-05
1	295	95.6747267584445	0.233001708984375	0.2330322265625	-5.755615234375E-07	-1.3412437738225E-07	-404878.0625	6.02332656853832E-05
1	296	95.7754347581903	0.222930908203125	0.222930908203125	-5.633544921875E-07	-1.25589124877479E-07	-395720.46875	6.01759165874682E-05
1	297	95.876142757936	0.212860107421875	0.212921142578125	-5.5206298828125E-07	-1.17545887690085E-07	-385682.6875	6.01197534706444E-05
1	298	95.9768507576817	0.202789306640625	0.20281982421875	-5.4168701171875E-07	-1.09864856767672E-07	-374422.5625	6.00646781094838E-05
1	299	96.0775587574275	0.192718505859375	0.19268798828125	-5.328369140625E-07	-1.02671272372845E-07	-361626.59375	6.00105704506859E-05
1	300	96.1782667571732	0.182647705078125	0.182708740234375	-5.2490234375E-07	-9.59042409931499E-08	-348081.40625	5.99573104409501E-05
1	301	96.278974756919	0.172576904296875	0.17254638671875	-5.1910400390625E-07	-8.95695180247458E-08	-332392.71875	5.99047380092088E-05
1	302	96.3796827566647	0.162506103515625	0.16253662109375	-5.15136718750001E-07	-8.37285796251308E-08	-315521.3125	5.98526603425853E-05
1	303	96.4803907564104	0.152435302734375	0.1524658203125	-5.15136718750001E-07	-7.85407436865171E-08	-295971.5625	5.98007827647962E-05
1	304	96.5810987561562	0.142364501953125	0.14239501953125	-5.18798828125E-07	-7.38743679562504E-08	-274470.59375	5.97487196500879E-05
1	305	96.6818067559019	0.132293701171875	0.132354736328125	-5.279541015625E-07	-6.9877231112514E-08	-250693.640625	5.96960126131307E-05
1	306	96.7825147556476	0.122222900390625	0.122283935546875	-5.45654296875001E-07	-6.67247590513398E-08	-224105.140625	5.96419522480574E-05
1	307	96.8832227553934	0.112152099609375	0.112152099609375	-5.7342529296875E-07	-6.43108464259967E-08	-195582.765625	5.95855999563355E-05
1	308	96.9839307551391	0.102081298828125	0.102081298828125	-6.170654296875E-07	-6.29908427640657E-08	-165430.265625	5.95256533415522E-05
1	309	97.0846387548848	0.092010498046875	0.092071533203125	-6.81457519531251E-07	-6.2742834927576E-08	-135109.71875	5.94602679484524E-05
1	310	97.1853467546306	0.081939697265625	0.08197021484375	-7.733154296875E-07	-6.33888319612197E-08	-105998.421875	5.93870172451716E-05
1	311	97.2860547543763	0.071868896484375	0.07196044921875	-8.9874267578125E-07	-6.46739266585428E-08	-80067.9140625	5.93028198636603E-05
1	312	97.3867627541221	0.061798095703125	0.061859130859375	-1.05987548828125E-06	-6.55629719403805E-08	-58364.52734375	5.92041978961788E-05
1	313	97.4874707538678	0.051727294921875	0.051788330078125	-1.258544921875E-06	-6.51779359372995E-08	-41149.37109375	5.90874551562592E-05
1	314	97.5881787536135	0.041656494140625	0.0417572021484375	-1.48529052734375E-06	-6.20215772073607E-08	-28113.830078125	5.89492919971235E-05
1	315	97.6888867533593	0.031585693359375	0.031683349609375	-1.72119140625E-06	-5.45331033663388E-08	-18407.80078125	5.87878312217072E-05
1	316	97.789594753105	0.021514892578125	0.021600341796875	-1.9427490234375E-06	-4.19640393545251E-08	-11118.4423828125	5.86033384024631E-05
1	317	97.8903027528507	0.011444091796875	0.0115509033203125	-2.12493896484375E-06	-2.45449633951011E-08	-5435.87548828125	5.83985129196662E-05
1	318	97.9910107525965	0.001373291015625	0.00145568847656249	-2.25128173828125E-06	-3.27716498382813E-09	-646.604309082031	5.81781532673631E-05
1	319	98.0917187523422	-0.008697509765625	-0.0085723876953125	-2.315673828125E-06	1.98508534055009E-08	3701.89770507813	5.79481893510092E-05
1	320	98.192426752088	-0.018768310546875	-0.0186767578125	-2.32421875E-06	4.34088711642744E-08	8035.71435546875	5.77145510760602E-05
1	321	98.2931347518337	-0.028839111328125	-0.0287109375	-2.29034423828125E-06	6.5757923550791E-08	12535.6435546875	5.74821897316724E-05
1	322	98.3938427515794	-0.038909912109375	-0.038763427734375	-2.23052978515625E-06	8.64629683405838E-08	17378.57421875	5.72545468457974E-05
1	323	98.4945507513252	-0.048980712890625	-0.048828125	-2.1563720703125E-06	1.05291597662927E-07	22643.646484375	5.70336487726308E-05
1	324	98.5952587510709	-0.059051513671875	-0.058990478515625	-2.0782470703125E-06	1.22596787832663E-07	28384.728515625	5.68204195587896E-05
1	325	98.6959667508166	-0.069122314453125	-0.06903076171875	-2.00103759765625E-06	1.38133145810571E-07	34497.484375	5.66150119993836E-05
1	326	98.7966747505624	-0.079193115234375	-0.07916259765625	-1.9293212890625E-06	1.5273009523753E-07	41031.31640625	5.6417102314299E-05
1	327	98.8973827503081	-0.089263916015625	-0.08917236328125	-1.86370849609375E-06	1.66191284733941E-07	47846.734375	5.62261084269267E-05
1	328	98.9980907500538	-0.099334716796875	-0.0992431640625	-1.80572509765625E-06	1.79205869699217E-07	54960.28515625	5.60413354833145E-05
1	329	99.0987987497996	-0.109405517578125	-0.109283447265625	-1.75384521484375E-06	1.91666245541455E-07	62310.7734375	5.58620959054679E-05
1	330	99.1995067495453	-0.119476318359375	-0.119354248046875	-1.70867919921875E-06	2.03938114395896E-07	69851.7578125	5.5687745771138E-05
1	331	99.3002147492911	-0.129547119140625	-0.129425048828125	-1.6693115234375E-06	2.16050722201544E-07	77531.9921875	5.55176484340336E-05
1	332	99.4009227490368	-0.139617919921875	-0.139495849609375	-1.6357421875E-06	2.28179246164473E-07	85279.8515625	5.53512290935032E-05
1	333	99.5016307487825	-0.149688720703125	-0.14959716796875	-1.6070556640625E-06	2.40410969354343E-07	93087.734375	5.51879384147469E-05
1	334	99.6023387485283	-0.159759521484375	-0.159637451171875	-1.58203125E-06	2.52551444646087E-07	100906.6328125	5.50273580302019E-05
1	335	99.703046748274	-0.169830322265625	-0.169677734375	-1.56158447265625E-06	2.64966104168707E-07	108657.421875	5.48690622963477E-05
1	336	99.8037547480197	-0.179901123046875	-0.17974853515625	-1.54510498046875E-06	2.7773035071732E-07	116334.1875	5.47126292076427E-05
1	337	99.9044627477655	-0.189971923828125	-0.1898193359375	-1.53167724609375E-06	2.90741951403106E-07	123929.078125	5.45576986041851E-05
1	338	100.005170747511	-0.200042724609375	-0.19989013671875	-1.522216796875E-06	3.0427611363848E-07	131315.15625	5.44039248779882E-05
1	339	100.105878747257	-0.189971923828125	-0.18975830078125	-1.36444091796875E-06	2.58913985362597E-07	139074.03125	5.42585694347508E-05
2	340	100.206586747003	-0.179901123046875	-0.179779052734375	-1.25335693359375E-06	2.25327312364243E-07	143438.03125	5.41267545486335E-05
2	341	100.307294746748	-0.169830322265625	-0.169708251953125	-1.16180419921875E-06	1.97167764781625E-07	146073.015625	5.40051405550912E-05
2	342	100.408002746494	-0.159759521484375	-0.15960693359375	-1.08367919921875E-06	1.7296271437317E-07	147282.453125	5.38920721737668E-05
2	343	100.50871074624	-0.149688720703125	-0.14959716796875	-1.01531982421875E-06	1.51888954746937E-07	147339.953125	5.37863779754844E-05
2	344	100.609418745986	-0.139617919921875	-0.13946533203125	-9.53369140625E-07	1.32961943677401E-07	146286.8125	5.36872466909699E-05
2	345	100.710126745731	-0.129547119140625	-0.129486083984375	-8.9691162109375E-07	1.16137570671526E-07	144368.828125	5.35940780537203E-05
2	346	100.810834745477	-0.119476318359375	-0.119354248046875	-8.441162109375E-07	1.00748849263255E-07	141395.515625	5.3506410040427E-05
2	347	100.911542745223	-0.109405517578125	-0.1092529296875	-7.92541503906249E-07	8.6587476744171E-08	137851.375	5.342399890651E-05
2	348	101.012250744969	-0.099334716796875	-0.0992431640625	-7.421875E-07	7.36570342496634E-08	133717.109375	5.33467173227109E-05
2	349	101.112958744714	-0.089263916015625	-0.089202880859375	-6.915283203125E-07	6.1686321828347E-08	128993.8203125	5.3274525271263E-05
2	350	101.21366674446	-0.079193115234375	-0.0791015625	-6.378173828125E-07	5.04523498534581E-08	124019.140625	5.32075864612125E-05
2	351	101.314374744206	-0.069122314453125	-0.069061279296875	-5.780029296875E-07	3.99176229848308E-08	119482.578125	5.31463665538467E-05
2	352	101.415082743952	-0.059051513671875	-0.0589599609375	-5.0933837890625E-07	3.00305700307035E-08	115757.9453125	5.30916149728E-05
2	353	101.515790743697	-0.048980712890625	-0.0488372802734375	-4.2572021484375E-07	2.0791016908106E-08	114716.8515625	5.30445286130998E-05
2	354	101.616498743443	-0.038909912109375	-0.03876953125	-3.22570800781249E-07	1.25059189670651E-08	120189.21875	5.30068500665948E-05
2	355	101.717206743189	-0.028839111328125	-0.0287109375	-1.92871093749999E-07	5.53750956200361E-09	148860.765625	5.2980896725785E-05
2	356	101.817914742934	-0.018768310546875	-0.018682861328125	-2.99072265625006E-08	5.58752599744139E-10	624693.875	5.29696771991439E-05
2	357	101.91862274268	-0.008697509765625	-0.008563232421875	1.71508789062499E-07	-1.46866963035563E-09	-49928.828125	5.29768076376058E-05
2	358	102.019330742426	0.001373291015625	0.0014923095703125	4.071044921875E-07	6.075259739724E-10	3665.66723632813	5.30059442098718E-05
2	359	102.120038742172	0.011444091796875	0.0115447998046875	6.70471191406249E-07	7.74045538776136E-09	17218.93359375	5.30602046637796E-05
2	360	102.220746741917	0.021514892578125	0.02158203125	9.40856933593751E-07	2.0305604309101E-08	22938.697265625	5.31413388671353E-05
2	361	102.321454741663	0.031585693359375	0.0316802978515625	1.195068359375E-06	3.7860118595745E-08	26509.193359375	5.32488920725882E-05
2	362	102.422162741409	0.041656494140625	0.0417083740234375	1.40777587890625E-06	5.87160364773354E-08	29627.140625	5.33799575350713E-05
2	363	102.522870741155	0.051727294921875	0.051727294921875	1.56158447265625E-06	8.07765374588598E-08	33124.87890625	5.3529474826064E-05
2	364	102.6235787409	0.061798095703125	0.061859130859375	1.65008544921875E-06	1.02072853280788E-07	37488.44140625	5.36911975359544E-05
2	365	102.724286740646	0.071868896484375	0.071929931640625	1.67999267578125E-06	1.20841747275335E-07	42815.625	5.38588792551309E-05
2	366	102.824994740392	0.081939697265625	0.082000732421875	1.6656494140625E-06	1.36584475285417E-07	49230.48828125	5.40273467777297E-05
2	367	102.925702740138	0.092010498046875	0.092071533203125	1.62200927734375E-06	1.49340877442228E-07	56763.87890625	5.41928930033464E-05
2	368	103.026410739883	0.102081298828125	0.1021728515625	1.56280517578125E-06	1.59676247335483E-07	65377.859375	5.43532587471418E-05
2	369	103.127118739629	0.112152099609375	0.11224365234375	1.49749755859375E-06	1.68084582696792E-07	74954.1484375	5.45073598914314E-05
2	370	103.227826739375	0.122222900390625	0.122283935546875	1.4324951171875E-06	1.75171138039332E-07	85364.296875	5.46548944839742E-05
2	371	103.328534739121	0.132293701171875	0.132354736328125	1.37115478515625E-06	1.8147882485664E-07	96527.9296875	5.47960698895622E-05
2	372	103.429242738866	0.142364501953125	0.14239501953125	1.314697265625E-06	1.87206339319346E-07	108310.125	5.49313153896946E-05
2	373	103.529950738612	0.152435302734375	0.152435302734375	1.2646484375E-06	1.92777065421978E-07	120535.71875	5.50611948710866E-05
2	374	103.630658738358	0.162506103515625	0.16253662109375	1.2200927734375E-06	1.98309749066539E-07	133216.609375	5.51863122382201E-05
2	375	103.731366738103	0.172576904296875	0.172576904296875	1.18133544921875E-06	2.03871209691897E-07	146086.296875	5.53072313778102E-05
2	376	103.832074737849	0.182647705078125	0.18267822265625	1.1468505859375E-06	2.09504619874679E-07	159286.859375	5.54244652448688E-05
2	377	103.932782737595	0.192718505859375	0.1927490234375	1.11724853515625E-06	2.15348563870066E-07	172521.171875	5.55384722247254E-05
2	378	104.033490737341	0.202789306640625	0.2027587890625	1.09039306640625E-06	2.21086779106372E-07	185950.171875	5.56496343051549E-05
2	379	104.134198737086	0.212860107421875	0.212860107421875	1.06719970703125E-06	2.27164250077294E-07	199456.671875	5.57582789042499E-05
2	380	104.234906736832	0.222930908203125	0.222930908203125	1.04705810546875E-06	2.33421602047201E-07	212911.703125	5.58647407160606E-05
2	381	104.335614736578	0.233001708984375	0.233062744140625	1.0284423828125E-06	2.3969161588866E-07	226617.203125	5.59692489332519E-05
2	382	104.436322736324	0.243072509765625	0.243072509765625	1.01226806640625E-06	2.46054526087391E-07	240126.625	5.60720072826371E-05
2	383	104.537030736069	0.253143310546875	0.253173828125	9.9822998046875E-07	2.52725698146605E-07	253622.734375	5.61732449568808E-05
2	384	104.637738735815	0.263214111328125	0.26318359375	9.857177734375E-07	2.5942475190277E-07	266996.90625	5.62731438549235E-05
2	385	104.738446735561	0.273284912109375	0.27325439453125	9.747314453125E-07	2.66349644562069E-07	280338.15625	5.6371860409854E-05
2	386	104.839154735307	0.283355712890625	0.2833251953125	9.6466064453125E-07	2.73312679155424E-07	293704.53125	5.64695183129515E-05
2	387	104.939862735052	0.293426513671875	0.29339599609375	9.55810546875E-07	2.80430981547397E-07	306960.4375	5.65662194276229E-05
2	388	105.040570734798	0.303497314453125	0.303436279296875	9.4757080078125E-07	2.8752734237969E-07	320225.46875	5.66620619792957E-05
2	389	105.141278734544	0.313568115234375	0.313568115234375	9.4146728515625E-07	2.9521410738198E-07	333063.21875	5.67571842111647E-05
2	390	105.24198673429	0.323638916015625	0.32366943359375	9.356689453125E-07	3.02847439570542E-07	345923.03125	5.68517061765306E-05
2	391	105.342694734035	0.333709716796875	0.333740234375	9.30175781250001E-07	3.10437087591708E-07	358792.65625	5.69456569792237E-05
2	392	105.443402733781	0.343780517578125	0.343780517578125	9.259033203125E-07	3.18307513680338E-07	371292.03125	5.70391202927567E-05
2	393	105.544110733527	0.353851318359375	0.35382080078125	9.22241210937499E-07	3.26308111198159E-07	383653.21875	5.71321797906421E-05
2	394	105.644818733272	0.363922119140625	0.3638916015625	9.1888427734375E-07	3.34374277599636E-07	396014.625	5.7224890042562E-05
2	395	105.745526733018	0.373992919921875	0.37396240234375	9.16748046875E-07	3.4282930982954E-07	407922.78125	5.73173201701138E-05
2	396	105.846234732764	0.384063720703125	0.384124755859375	9.14306640625E-07	3.51207802395948E-07	420126.84375	5.74095211050007E-05
2	397	105.94694273251	0.394134521484375	0.394134521484375	9.136962890625E-07	3.60119258857594E-07	431362.71875	5.75015692447778E-05
2	398	106.047650732255	0.404205322265625	0.404144287109375	9.1217041015625E-07	3.68648443327402E-07	443057.90625	5.75935082451906E-05
2	399	106.148358732001	0.414276123046875	0.414276123046875	9.1217041015625E-07	3.77890415848015E-07	454165.28125	5.76853708480485E-05
2	400	106.249066731747	0.424346923828125	0.42431640625	9.11865234375001E-07	3.86919367656446E-07	465328	5.77772188989911E-05
2	401	106.349774731493	0.434417724609375	0.434478759765625	9.124755859375E-07	3.96451241613249E-07	476153.84375	5.7869081501849E-05
2	402	106.450482731238	0.444488525390625	0.444488525390625	9.13391113281251E-07	4.05991869456557E-07	486635.5	5.79610205022618E-05
2	403	106.551190730984	0.454559326171875	0.45452880859375	9.136962890625E-07	4.15301286693648E-07	497461.59375	5.80530213483144E-05
2	404	106.65189873073	0.464630126953125	0.464630126953125	9.1522216796875E-07	4.25239761625562E-07	507669.25	5.81451167818159E-05
2	405	106.752606730476	0.474700927734375	0.4747314453125	9.16442871093751E-07	4.35064237080951E-07	518015.34375	5.82373468205333E-05
2	406	106.853314730221	0.484771728515625	0.4847412109375	9.185791015625E-07	4.45273144578096E-07	527707.625	5.83297478442546E-05
2	407	106.954022729967	0.494842529296875	0.494781494140625	9.21020507812501E-07	4.55703911939054E-07	537210.0625	5.84223780606408E-05
2	408	107.054730729713	0.504913330078125	0.50494384765625	9.2437744140625E-07	4.66758706352266E-07	546252.875	5.85153029533103E-05
2	409	107.155438729459	0.514984130859375	0.514984130859375	9.28649902343751E-07	4.78239940093772E-07	554551.4375	5.86086098337546E-05
2	410	107.256146729204	0.525054931640625	0.5250244140625	9.3414306640625E-07	4.90447916945413E-07	562038.5625	5.87024078413378E-05
2	411	107.35685472895	0.535125732421875	0.535125732421875	9.41162109375E-07	5.03640080751211E-07	568579.75	5.87968388572335E-05
2	412	107.457562728696	0.545196533203125	0.545166015625	9.50012207031251E-07	5.17914372721862E-07	573851.625	5.8892066590488E-05
2	413	107.558270728441	0.555267333984375	0.55523681640625	9.619140625E-07	5.34090077053406E-07	577220.875	5.898833842366E-05
2	414	107.658978728187	0.565338134765625	0.56536865234375	9.78698730468749E-07	5.53325605778809E-07	577673.8125	5.90860581723973E-05
2	415	107.759686727933	0.575408935546875	0.575408935546875	1.0009765625E-06	5.75970886984578E-07	574847.5625	5.91857424296904E-05
2	416	107.860394727679	0.585479736328125	0.58544921875	1.03240966796875E-06	6.04423405548005E-07	567070.6875	5.92881297052372E-05
2	417	107.961102727424	0.595550537109375	0.59552001953125	1.07879638671875E-06	6.42444831555622E-07	552022.625	5.93944387219381E-05
2	418	108.06181072717	0.605621337890625	0.6055908203125	1.1444091796875E-06	6.93043659794057E-07	529173.375	5.95063866057899E-05
2	419	108.162518726916	0.615692138671875	0.6156005859375	1.23870849609375E-06	7.62549689170555E-07	496969.71875	5.96263853367418E-05
2	420	108.263226726662	0.625762939453125	0.625732421875	1.370849609375E-06	8.57784982599696E-07	456455.9375	5.97577854932752E-05
2	421	108.363934726407	0.635833740234375	0.6357421875	1.5496826171875E-06	9.85198539638077E-07	410240.28125	5.9904847148573E-05
2	422	108.464642726153	0.645904541015625	0.645843505859375	1.7803955078125E-06	1.14985687105218E-06	362752.84375	6.00725288677495E-05
2	423	108.565350725899	0.655975341796875	0.655914306640625	2.06390380859375E-06	1.35374409637734E-06	317802.75	6.02661057200748E-05
2	424	108.666058725645	0.666046142578125	0.666046142578125	2.39105224609375E-06	1.5925511434034E-06	278557.75	6.04904307692777E-05
2	425	108.76676672539	0.676116943359375	0.675994873046875	2.740478515625E-06	1.85254941698076E-06	246670.375	6.07488218520302E-05
2	426	108.867474725136	0.686187744140625	0.68603515625	3.08319091796875E-06	2.11517726711463E-06	222508.171875	6.10420684097335E-05
2	427	108.968182724882	0.696258544921875	0.696197509765625	3.38623046875E-06	2.35748530030833E-06	205596.609375	6.13678275840357E-05
2	428	109.068890724628	0.706329345703125	0.706268310546875	3.621826171875E-06	2.55798113357741E-06	195003.375	6.17207115283236E-05
2	429	109.169598724373	0.716400146484375	0.716278076171875	3.77197265625E-06	2.70178134087473E-06	189894.828125	6.20930222794414E-05
2	430	109.270306724119	0.726470947265625	0.7264404296875	3.839111328125E-06	2.7888856948266E-06	189220.984375	6.24762687948532E-05
2	431	109.371014723865	0.736541748046875	0.73638916015625	3.837890625E-06	2.82618111668853E-06	191873.40625	6.28628404228948E-05
2	432	109.47172272361	0.746612548828125	0.74652099609375	3.79302978515625E-06	2.83157623925945E-06	196813.90625	6.32470837444998E-05
2	433	109.572430723356	0.756683349609375	0.7568359375	3.7261962890625E-06	2.82011910712754E-06	203112.203125	6.36257100268267E-05
2	434	109.673138723102	0.766754150390625	0.7666015625	3.65936279296875E-06	2.80527319773682E-06	209490.46875	6.39975987724029E-05
2	435	109.773846722848	0.776824951171875	0.7769775390625	3.60626220703125E-06	2.80198469226889E-06	215452.3125	6.43634557491168E-05
2	436	109.874554722593	0.786895751953125	0.7867431640625	3.58123779296875E-06	2.81751431430166E-06	219684.703125	6.47253691568039E-05
2	437	109.975262722339	0.796966552734375	0.79681396484375	3.59283447265625E-06	2.8628205654968E-06	221778.640625	6.50866131763905E-05
2	438	110.075970722085	0.807037353515625	0.80718994140625	3.64959716796875E-06	2.94591814054002E-06	221172.34375	6.54512987239286E-05
2	439	110.176678721831	0.817108154296875	0.8172607421875	3.7542724609375E-06	3.06821925732947E-06	217688.1875	6.58241187920794E-05
2	440	110.277386721576	0.827178955078125	0.82672119140625	3.90655517578125E-06	3.22963160215295E-06	211624.109375	6.62098682369106E-05
2	441	110.378094721322	0.837249755859375	0.83740234375	4.09210205078125E-06	3.42673570230545E-06	204638.6875	6.66126361466013E-05
2	442	110.478802721068	0.847320556640625	0.84686279296875	4.293212890625E-06	3.63576236850349E-06	197256.1875	6.703486724291E-05
2	443	110.579510720814	0.857391357421875	0.85723876953125	4.48516845703125E-06	3.84486020266195E-06	191127.453125	6.74768962198868E-05
2	444	110.680218720559	0.867462158203125	0.8673095703125	4.644775390625E-06	4.02845807911945E-06	186727.984375	6.79366203257814E-05
2	445	110.780926720305	0.877532958984375	0.877685546875	4.7528076171875E-06	4.17147020925768E-06	184666.765625	6.84098267811351E-05
2	446	110.881634720051	0.887603759765625	0.887451171875	4.80712890625E-06	4.26609221904073E-06	184611.484375	6.8891211412847E-05
2	447	110.982342719797	0.897674560546875	0.8978271484375	4.81201171875E-06	4.32035449193791E-06	186580.421875	6.93755719112232E-05
2	448	111.083050719542	0.907745361328125	0.90789794921875	4.78607177734375E-06	4.34526464232476E-06	189695.84375	6.98588773957454E-05
2	449	111.183758719288	0.917816162109375	0.91827392578125	4.74761962890625E-06	4.35961510447669E-06	193417.75	7.0338930527214E-05
2	450	111.284466719034	0.927886962890625	0.92803955078125	4.71527099609375E-06	4.37595781477285E-06	196815.75	7.08154257154092E-05
2	451	111.385174718779	0.937957763671875	0.93780517578125	4.70947265625E-06	4.41656766270171E-06	199131.671875	7.12900000507943E-05
2	452	111.485882718525	0.948028564453125	0.948486328125	4.74395751953125E-06	4.49957906312193E-06	199935.671875	7.17660223017447E-05
2	453	111.586590718271	0.958099365234375	0.958251953125	4.8370361328125E-06	4.6350992306543E-06	198107.25	7.22484619473107E-05
2	454	111.687298718017	0.968170166015625	0.96832275390625	5.0018310546875E-06	4.84338670503348E-06	193593.65625	7.27438891772181E-05
2	455	111.788006717762	0.978240966796875	0.9783935546875	5.242919921875E-06	5.12963924848009E-06	186612.34375	7.32597545720637E-05
2	456	111.888714717508	0.988311767578125	0.9881591796875	5.55419921875E-06	5.48843263459275E-06	177912.09375	7.38034286769107E-05
2	457	111.989422717254	0.998382568359375	0.99822998046875	5.9234619140625E-06	5.91297703067539E-06	168521.390625	7.43813725421205E-05
2	458	112.090130717	1.00845336914063	1.00830078125	6.3201904296875E-06	6.37265247860341E-06	159536.46875	7.49978935346007E-05
2	459	112.190838716745	1.01852416992188	1.01806640625	6.707763671875E-06	6.828948698967E-06	151774.34375	7.56539011490531E-05
2	460	112.291546716491	1.02859497070313	1.02813720703125	7.0404052734375E-06	7.23850280337501E-06	146033.8125	7.63461794122122E-05
2	461	112.392254716237	1.03866577148438	1.03790283203125	7.2845458984375E-06	7.56065037421649E-06	142480.109375	7.70674960222095E-05
2	462	112.492962715983	1.04873657226563	1.04888916015625	7.4188232421875E-06	7.78152298153145E-06	141382.15625	7.78078683651984E-05
2	463	112.593670715728	1.05880737304688	1.05926513671875	7.4432373046875E-06	7.88436136645032E-06	142312.421875	7.85562369856052E-05
2	464	112.694378715474	1.06887817382813	1.0693359375	7.3699951171875E-06	7.88099987403257E-06	145093.171875	7.93021390563808E-05
2	465	112.79508671522	1.07894897460938	1.0784912109375	7.2357177734375E-06	7.8036573540885E-06	149051.046875	8.00375928520225E-05
2	466	112.895794714966	1.08901977539063	1.0888671875	7.0648193359375E-06	7.69264988775831E-06	154125.265625	8.07576871011406E-05
2	467	112.996502714711	1.09909057617188	1.09954833984375	6.8817138671875E-06	7.56677673052764E-06	159778.28125	8.14599479781464E-05
2	468	113.097210714457	1.10916137695313	1.10931396484375	6.695556640625E-06	7.42747397453059E-06	165679.140625	8.21436187834479E-05
2	469	113.197918714203	1.11923217773438	1.119384765625	6.5185546875E-06	7.2967704909388E-06	171722.84375	8.28089978313074E-05
2	470	113.298626713948	1.12930297851563	1.129150390625	6.353759765625E-06	7.17435023034341E-06	177713.75	8.34571765153669E-05
2	471	113.399334713694	1.13937377929688	1.1395263671875	6.2042236328125E-06	7.06987657395075E-06	183669.453125	8.40895154397003E-05
2	472	113.50004271344	1.14944458007813	1.14959716796875	6.0699462890625E-06	6.97799305271474E-06	189391.65625	8.47075716592371E-05
2	473	113.600750713186	1.15951538085938	1.15997314453125	5.9478759765625E-06	6.89937587594613E-06	195023.09375	8.53127203299664E-05
2	474	113.701458712931	1.16958618164063	1.1700439453125	5.8380126953125E-06	6.83073085383512E-06	200418.203125	8.59061838127673E-05
2	475	113.802166712677	1.17965698242188	1.1798095703125	5.7403564453125E-06	6.77252728564781E-06	205528.984375	8.64891990204342E-05
2	476	113.902874712423	1.18972778320313	1.18988037109375	5.65185546875E-06	6.72503165333183E-06	210529.171875	8.7062842794694E-05
2	477	114.003582712169	1.19979858398438	1.1993408203125	5.572509765625E-06	6.6833381424658E-06	215224.546875	8.76280391821638E-05
2	478	114.104290711914	1.20986938476563	1.21002197265625	5.5023193359375E-06	6.65792731524562E-06	219911.265625	8.81856976775452E-05
2	479	114.20499871166	1.21994018554688	1.219482421875	5.438232421875E-06	6.63182845528354E-06	224242.4375	8.87365968083031E-05
2	480	114.305706711406	1.23001098632813	1.23016357421875	5.377197265625E-06	6.61483227304416E-06	228774.109375	8.92812022357248E-05
2	481	114.406414711152	1.24008178710938	1.2396240234375	5.322265625E-06	6.59760826238198E-06	232912.84375	8.98199577932246E-05
2	482	114.507122710897	1.25015258789063	1.25	5.2734375E-06	6.59179659123765E-06	237037.046875	9.03534964891151E-05
2	483	114.607830710643	1.26022338867188	1.26068115234375	5.230712890625E-06	6.59426086713211E-06	241015.171875	9.08824222278781E-05
2	484	114.708538710389	1.27029418945313	1.2701416015625	5.1910400390625E-06	6.59335546515649E-06	244679.609375	9.14072006708011E-05
2	485	114.809246710135	1.28036499023438	1.280517578125	5.1544189453125E-06	6.60032401356148E-06	248431.03125	9.19281301321462E-05
2	486	114.90995470988	1.29043579101563	1.29058837890625	5.1239013671875E-06	6.61284730085754E-06	251876.125	9.24456908251159E-05
2	487	115.010662709626	1.30050659179688	1.3006591796875	5.0933837890625E-06	6.62475622448255E-06	255362.5	9.29601665120572E-05
2	488	115.111370709372	1.31057739257813	1.3104248046875	5.0689697265625E-06	6.6425036493456E-06	258518.96875	9.34718846110627E-05
2	489	115.212078709117	1.32064819335938	1.32080078125	5.047607421875E-06	6.66688356432132E-06	261668.6875	9.39812962315045E-05
2	490	115.312786708863	1.33071899414063	1.33056640625	5.029296875E-06	6.69181372359162E-06	264563.09375	9.44887069636025E-05
2	491	115.413494708609	1.34078979492188	1.34063720703125	5.01708984375E-06	6.72609712637495E-06	267214.125	9.49945824686438E-05
2	492	115.514202708355	1.35086059570313	1.3507080078125	5.0048828125E-06	6.7601349655888E-06	269878.0625	9.54992283368483E-05
2	493	115.6149107081	1.36093139648438	1.36077880859375	4.998779296875E-06	6.80223320159712E-06	272222.21875	9.60029501584359E-05
2	494	115.715618707846	1.37100219726563	1.37115478515625	4.99267578125E-06	6.84573114995146E-06	274633.25	9.65060607995838E-05
2	495	115.816326707592	1.38107299804688	1.38092041015625	4.99267578125E-06	6.89448779667146E-06	276589.25	9.70088658505119E-05
2	496	115.917034707338	1.39114379882813	1.39129638671875	4.99267578125E-06	6.94629170538974E-06	278667.5	9.75116709014401E-05
2	497	116.017742707083	1.40121459960938	1.4013671875	4.9957275390625E-06	7.00084865457029E-06	280513.125	9.80146214715205E-05
2	498	116.118450706829	1.41128540039063	1.41143798828125	5.0018310546875E-06	7.05977436155081E-06	282184.25	9.85180377028883E-05
2	499	116.219158706575	1.42135620117188	1.42120361328125	5.0079345703125E-06	7.11729444446974E-06	283790.375	9.90220723906532E-05
2	500	116.319866706321	1.43142700195313	1.4312744140625	5.0201416015625E-06	7.18520004738821E-06	285106.375	9.95270238490775E-05
2	501	116.420574706066	1.44149780273438	1.44195556640625	5.0323486328125E-06	7.25642257748405E-06	286537.3125	0.000100033212220296
2	502	116.521282705812	1.45156860351563	1.451416015625	5.0537109375E-06	7.33503702576854E-06	287198.0625	0.000100541081337724
2	503	116.621990705558	1.46163940429688	1.46148681640625	5.084228515625E-06	7.43053260521265E-06	287455	0.000101051569799893
2	504	116.722698705304	1.47171020507813	1.4715576171875	5.1239013671875E-06	7.54011580283986E-06	287194.75	0.000101565587101504
2	505	116.823406705049	1.48178100585938	1.48193359375	5.17578125E-06	7.67016354075167E-06	286320.75	0.000102084217360243
2	506	116.924114704795	1.49185180664063	1.49169921875	5.242919921875E-06	7.82085953687783E-06	284516.875	0.000102608843008056
2	507	117.024822704541	1.50192260742188	1.5020751953125	5.3253173828125E-06	7.99902682047104E-06	282063.0625	0.000103140991996042
2	508	117.125530704286	1.49185180664063	1.49139404296875	5.0384521484375E-06	7.51431707612937E-06	296002.4375	0.000103662852779962
2	509	117.226238704032	1.48178100585938	1.48162841796875	4.82666015625E-06	7.15131682227366E-06	306967.625	0.000104159604234155
2	510	117.326946703778	1.47171020507813	1.47186279296875	4.65972900390625E-06	6.85848135617562E-06	315868.78125	0.000104637278127484
2	511	117.427654703524	1.46163940429688	1.4617919921875	4.5220947265625E-06	6.61036165183759E-06	323255.5	0.00010509962157812
2	512	117.528362703269	1.45156860351563	1.451416015625	4.407958984375E-06	6.39778227196075E-06	329271.6875	0.000105549283034634
2	513	117.629070703015	1.44149780273438	1.4410400390625	4.3096923828125E-06	6.2104395510687E-06	334371.90625	0.000105988248833455
2	514	117.729778702761	1.43142700195313	1.43218994140625	4.22576904296875E-06	6.05210379944765E-06	338918.1875	0.000106418046925683
2	515	117.830486702507	1.42135620117188	1.42120361328125	4.15252685546875E-06	5.90158606428304E-06	342250.3125	0.000106839928776026
2	516	117.931194702252	1.41128540039063	1.4111328125	4.0875244140625E-06	5.76803950025351E-06	345229.21875	0.000107254847534932
2	517	118.031902701998	1.40121459960938	1.4013671875	4.02984619140625E-06	5.64729407415143E-06	347747.09375	0.000107663589005824
2	518	118.132610701744	1.39114379882813	1.39129638671875	3.97705078125E-06	5.53325617147493E-06	349831.1875	0.000108066771645099
2	519	118.23331870149	1.38107299804688	1.38031005859375	3.929443359375E-06	5.42384987056721E-06	351273.6875	0.000108464890217874
2	520	118.334026701235	1.37100219726563	1.370849609375	3.88519287109375E-06	5.32601461600279E-06	352839.53125	0.000108858388557564
2	521	118.434734700981	1.36093139648438	1.361083984375	3.8446044921875E-06	5.23282915310119E-06	354024.46875	0.000109247615910135
2	522	118.535442700727	1.35086059570313	1.35040283203125	3.8067626953125E-06	5.14066277901293E-06	354737.875	0.000109632892417721
2	523	118.636150700473	1.34078979492188	1.34063720703125	3.77166748046875E-06	5.05643765791319E-06	355449.46875	0.000110014494566713
2	524	118.736858700218	1.33071899414063	1.33056640625	3.73809814453125E-06	4.97378778163693E-06	355947.4375	0.000110392647911794
2	525	118.837566699964	1.32064819335938	1.32080078125	3.70635986328125E-06	4.89536296299775E-06	356360.65625	0.000110767505248077
2	526	118.93827469971	1.31057739257813	1.31103515625	3.6761474609375E-06	4.81955839859438E-06	356632.90625	0.000111139241198543
2	527	119.038982699455	1.30050659179688	1.30096435546875	3.6474609375E-06	4.74521630167146E-06	356676.71875	0.000111508015834261
2	528	119.139690699201	1.29043579101563	1.29058837890625	3.61907958984375E-06	4.67074187326944E-06	356606.8125	0.00011187391646672
2	529	119.240398698947	1.28036499023438	1.280517578125	3.5931396484375E-06	4.60107821709244E-06	356378.46875	0.000112237081339117
2	530	119.341106698693	1.27029418945313	1.26983642578125	3.568115234375E-06	4.53092252428178E-06	355884.375	0.000112597677798476
2	531	119.441814698438	1.26022338867188	1.259765625	3.54339599609375E-06	4.46384819952073E-06	355524.9375	0.000112955771328416
2	532	119.542522698184	1.25015258789063	1.2506103515625	3.52020263671875E-06	4.40240182797424E-06	355266.59375	0.000113311449240427
2	533	119.64323069793	1.24008178710938	1.24053955078125	3.49822998046875E-06	4.33969262303435E-06	354619.21875	0.000113664857053664
2	534	119.743938697676	1.23001098632813	1.23016357421875	3.4765625E-06	4.27674058300909E-06	353844.8125	0.0001140160675277
2	535	119.844646697421	1.21994018554688	1.2200927734375	3.45611572265625E-06	4.21678169004736E-06	353024.3125	0.000114365153422114
2	536	119.945354697167	1.20986938476563	1.209716796875	3.43536376953125E-06	4.15581689594546E-06	352136.46875	0.000114712165668607
2	537	120.046062696913	1.19979858398438	1.1993408203125	3.4149169921875E-06	4.09564927394968E-06	351206.4375	0.00011505710426718
2	538	120.146770696659	1.18972778320313	1.190185546875	3.39385986328125E-06	4.03932290282683E-06	350687.90625	0.000115399954665918
2	539	120.247478696404	1.17965698242188	1.17950439453125	3.37249755859375E-06	3.97787562178564E-06	349742.09375	0.000115740665933117
2	540	120.34818669615	1.16958618164063	1.16973876953125	3.34991455078125E-06	3.91852472603205E-06	349184.65625	0.000116079165309202
2	541	120.448894695896	1.15951538085938	1.15966796875	3.3251953125E-06	3.856122475554E-06	348751.84375	0.000116415285447147
2	542	120.549602695642	1.14944458007813	1.14959716796875	3.2965087890625E-06	3.78965728486946E-06	348731.71875	0.000116748713480774
2	543	120.650310695387	1.13937377929688	1.13922119140625	3.262939453125E-06	3.71720966541034E-06	349139.5625	0.000117079012852628
2	544	120.751018695133	1.12930297851563	1.12945556640625	3.22174072265625E-06	3.63881281373324E-06	350573.09375	0.000117405536002479
2	545	120.851726694879	1.11923217773438	1.11907958984375	3.1689453125E-06	3.54630196852668E-06	353139.4375	0.00011772733705584
2	546	120.952434694624	1.10916137695313	1.1090087890625	3.099365234375E-06	3.43722308571159E-06	357818.0625	0.000118042968097143
2	547	121.05314269437	1.09909057617188	1.0986328125	3.00750732421875E-06	3.30414627569553E-06	365296.8125	0.000118350479169749
2	548	121.153850694116	1.08901977539063	1.0888671875	2.88330078125E-06	3.13953160002711E-06	377646.0625	0.000118647098133806
2	549	121.254558693862	1.07894897460938	1.0791015625	2.7166748046875E-06	2.93156790576177E-06	397214.125	0.000118929085147101
2	550	121.355266693607	1.06887817382813	1.0687255859375	2.49603271484375E-06	2.66757410827267E-06	428169.6875	0.000119191565318033
2	551	121.455974693353	1.05880737304688	1.0589599609375	2.2119140625E-06	2.3423283437296E-06	478752.75	0.000119428630569018
2	552	121.556682693099	1.04873657226563	1.04888916015625	1.85638427734375E-06	1.94714129975182E-06	565017.3125	0.000119633485155646
2	553	121.657390692845	1.03866577148438	1.03851318359375	1.43798828125E-06	1.49336972299352E-06	722198.6875	0.000119799369713292
2	554	121.75809869259	1.02859497070313	1.02813720703125	9.6954345703125E-07	9.96823700916138E-07	1060434.375	0.000119920594443101
2	555	121.858806692336	1.01852416992188	1.01837158203125	4.82788085937499E-07	4.91657658585609E-07	2109355.25	0.000119993725093082
2	556	121.959514692082	1.00845336914063	1.00830078125	1.46484375000006E-08	1.47700305319631E-08	68833336	0.000120018776215147
2	557	122.060222691828	0.998382568359375	0.99853515625	-3.91235351562499E-07	-3.90662250993046E-07	-2552262	0.000119999815069605
2	558	122.160930691573	0.988311767578125	0.98846435546875	-7.03125E-07	-6.95014023222029E-07	-1405816	0.000119944706966635
2	559	122.261638691319	0.978240966796875	0.977783203125	-9.02404785156249E-07	-8.82356175679888E-07	-1083530.625	0.000119863863801584
2	560	122.362346691065	0.968170166015625	0.96832275390625	-9.9090576171875E-07	-9.59516569309926E-07	-977209.75	0.000119768526928965
2	561	122.463054690811	0.958099365234375	0.958251953125	-9.857177734375E-07	-9.4456595434167E-07	-972136.25	0.000119668991828803
2	562	122.563762690556	0.948028564453125	0.9478759765625	-9.1888427734375E-07	-8.70988344559009E-07	-1031551	0.00011957308743149
2	563	122.664470690302	0.937957763671875	0.93841552734375	-8.17260742187501E-07	-7.66930156714807E-07	-1148245	0.000119485666800756
2	564	122.765178690048	0.927886962890625	0.927734375	-7.08923339843751E-07	-6.57692510230845E-07	-1308652.625	0.000119408818136435
2	565	122.865886689793	0.917816162109375	0.91796875	-6.10961914062499E-07	-5.60843886887596E-07	-1502497.625	0.000119342359539587
2	566	122.966594689539	0.907745361328125	0.90789794921875	-5.4046630859375E-07	-4.90688250920357E-07	-1679841.875	0.00011928437743336
2	567	123.067302689285	0.897674560546875	0.8978271484375	-5.13610839843751E-07	-4.61133737417185E-07	-1748069	0.000119231299322564
2	568	123.168010689031	0.887603759765625	0.8880615234375	-5.4229736328125E-07	-4.81593417589465E-07	-1637591.5	0.000119178133900277
2	569	123.268718688776	0.877532958984375	0.877685546875	-6.32629394531251E-07	-5.55249698663829E-07	-1387361.375	0.000119118973088916
2	570	123.369426688522	0.867462158203125	0.86700439453125	-7.769775390625E-07	-6.73642944093444E-07	-1115868.125	0.000119047988846432
2	571	123.470134688268	0.857391357421875	0.85723876953125	-9.58251953125E-07	-8.21450669263868E-07	-894586	0.000118960611871444
2	572	123.570842688014	0.847320556640625	0.8477783203125	-1.1480712890625E-06	-9.73309965957014E-07	-738437	0.000118854550237302
2	573	123.671550687759	0.837249755859375	0.83709716796875	-1.3201904296875E-06	-1.10512769424531E-06	-634073.0625	0.000118730269605294
2	574	123.772258687505	0.827178955078125	0.82763671875	-1.44927978515625E-06	-1.19947708299151E-06	-571067.625	0.000118590811325703
2	575	123.872966687251	0.817108154296875	0.81756591796875	-1.52313232421875E-06	-1.24526104627876E-06	-536766.1875	0.000118441137601621
2	576	123.973674686997	0.807037353515625	0.80718994140625	-1.539306640625E-06	-1.24251278066367E-06	-524385.4375	0.000118286930955946
2	577	124.074382686742	0.796966552734375	0.797119140625	-1.51092529296875E-06	-1.20438744488638E-06	-527570.1875	0.000118133342766669
2	578	124.175090686488	0.786895751953125	0.787353515625	-1.45355224609375E-06	-1.14445936105767E-06	-541675.4375	0.000117984069220256
2	579	124.275798686234	0.776824951171875	0.77728271484375	-1.38580322265625E-06	-1.07716084585263E-06	-560889.6875	0.000117841096653137
2	580	124.37650668598	0.766754150390625	0.76690673828125	-1.32568359375E-06	-1.01667569651909E-06	-578499.0625	0.000117704563308507
2	581	124.477214685725	0.756683349609375	0.7568359375	-1.2872314453125E-06	-9.74222984950757E-07	-587956.375	0.00011757299216697
2	582	124.577922685471	0.746612548828125	0.746551513671875	-1.282958984375E-06	-9.5779489583947E-07	-581898.25	0.000117443574708886
2	583	124.678630685217	0.736541748046875	0.73638916015625	-1.32354736328125E-06	-9.74645899987081E-07	-556375.4375	0.000117312323709484
2	584	124.779338684962	0.726470947265625	0.726409912109375	-1.417236328125E-06	-1.02949445590639E-06	-512553.84375	0.000117174313345458
2	585	124.880046684708	0.716400146484375	0.71636962890625	-1.57073974609375E-06	-1.1252302556386E-06	-456071.5	0.000117023861093912
2	586	124.980754684454	0.706329345703125	0.706298828125	-1.77978515625E-06	-1.25706014841853E-06	-396845	0.000116855146188755
2	587	125.0814626842	0.696258544921875	0.696258544921875	-2.03277587890625E-06	-1.41533757869183E-06	-342516.125	0.000116663170047104
2	588	125.182170683945	0.686187744140625	0.6861572265625	-2.3016357421875E-06	-1.57928400312812E-06	-298117.21875	0.000116444913146552
2	589	125.282878683691	0.676116943359375	0.676116943359375	-2.5555419921875E-06	-1.72784518781555E-06	-264568.90625	0.000116200331831351
2	590	125.383586683437	0.666046142578125	0.66595458984375	-2.76031494140625E-06	-1.83824431587709E-06	-241260.375	0.000115932656626683
2	591	125.484294683183	0.655975341796875	0.655914306640625	-2.8912353515625E-06	-1.89640252301615E-06	-226863	0.000115648079372477
2	592	125.585002682928	0.645904541015625	0.64581298828125	-2.938232421875E-06	-1.89754871371406E-06	-219796.421875	0.000115354545414448
2	593	125.685710682674	0.635833740234375	0.635711669921875	-2.908935546875E-06	-1.84924431323452E-06	-218537.5625	0.000115060116513632
2	594	125.78641868242	0.625762939453125	0.625732421875	-2.82196044921875E-06	-1.76579214894446E-06	-221736.78125	0.000114771544758696
2	595	125.887126682166	0.615692138671875	0.6156005859375	-2.6971435546875E-06	-1.66036318205443E-06	-228241.6875	0.000114493632281665
2	596	125.987834681911	0.605621337890625	0.605621337890625	-2.55401611328125E-06	-1.54676661168196E-06	-237125.125	0.000114229216706008
2	597	126.088542681657	0.595550537109375	0.59552001953125	-2.406005859375E-06	-1.43282454700966E-06	-247513.96875	0.000113979462184943
2	598	126.189250681403	0.585479736328125	0.585479736328125	-2.26226806640625E-06	-1.32451214085449E-06	-258802.109375	0.000113744390546344
2	599	126.289958681149	0.575408935546875	0.575408935546875	-2.12615966796875E-06	-1.22341123187653E-06	-270633	0.000113523419713601
2	600	126.390666680894	0.565338134765625	0.565338134765625	-2.00103759765625E-06	-1.13126282030862E-06	-282522.5	0.000113315596536268
2	601	126.49137468064	0.555267333984375	0.555267333984375	-1.88629150390625E-06	-1.04739604012138E-06	-294369.84375	0.000113119858724531
2	602	126.592082680386	0.545196533203125	0.545166015625	-1.7822265625E-06	-9.71609324551537E-07	-305890.4375	0.000112935129436664
2	603	126.692790680131	0.535125732421875	0.53515625	-1.68731689453125E-06	-9.02978172234725E-07	-317164.0625	0.00011276042641839
2	604	126.793498679877	0.525054931640625	0.5250244140625	-1.6015625E-06	-8.40859343043121E-07	-327820.125	0.000112594818347134
2	605	126.894206679623	0.514984130859375	0.514923095703125	-1.5228271484375E-06	-7.84138876497309E-07	-338136.28125	0.000112437490315642
2	606	126.994914679369	0.504913330078125	0.5048828125	-1.4508056640625E-06	-7.32486796550802E-07	-348001.6875	0.0001122877583839
2	607	127.095622679114	0.494842529296875	0.494842529296875	-1.3848876953125E-06	-6.85301301928121E-07	-357316	0.000112144967715722
2	608	127.19633067886	0.484771728515625	0.4847412109375	-1.324462890625E-06	-6.42021689145622E-07	-365990.8125	0.000112008543510456
2	609	127.297038678606	0.474700927734375	0.474700927734375	-1.26800537109375E-06	-6.01923318299669E-07	-374368.25	0.000111877998278942
2	610	127.397746678352	0.464630126953125	0.464599609375	-1.21673583984375E-06	-5.65294953958073E-07	-381841	0.000111752888187766
2	611	127.498454678097	0.454559326171875	0.45458984375	-1.168212890625E-06	-5.31057708030858E-07	-389132.71875	0.000111632791231386
2	612	127.599162677843	0.444488525390625	0.4444580078125	-1.1236572265625E-06	-4.99418433719256E-07	-395545.90625	0.000111517387267668
2	613	127.699870677589	0.434417724609375	0.434417724609375	-1.08154296875E-06	-4.69841410222216E-07	-401664.8125	0.000111406348878518
2	614	127.800578677335	0.424346923828125	0.424407958984375	-1.04278564453125E-06	-4.42566488345619E-07	-406994.46875	0.000111299377749674
2	615	127.90128667708	0.414276123046875	0.41424560546875	-1.00616455078125E-06	-4.16799252889177E-07	-411707.625	0.000111196204670705
2	616	128.001994676826	0.404205322265625	0.404205322265625	-9.716796875E-07	-3.92758096268153E-07	-415986.1875	0.000111096611362882
2	617	128.102702676572	0.394134521484375	0.394134521484375	-9.39331054687501E-07	-3.70222778656171E-07	-419590.65625	0.000111000386823434
2	618	128.203410676318	0.384063720703125	0.384063720703125	-9.0850830078125E-07	-3.48925084381335E-07	-422741.03125	0.000110907341877464
2	619	128.304118676063	0.373992919921875	0.3740234375	-8.795166015625E-07	-3.28959799844597E-07	-425260.25	0.000110817309177946
2	620	128.404826675809	0.363922119140625	0.36395263671875	-8.514404296875E-07	-3.09883972704483E-07	-427455.21875	0.000110730143205728
2	621	128.505534675555	0.353851318359375	0.3538818359375	-8.251953125E-07	-2.92021610448501E-07	-428846.15625	0.000110645720269531
2	622	128.6062426753	0.343780517578125	0.343780517578125	-8.00476074218751E-07	-2.75188085652189E-07	-429470.0625	0.000110563858470414
2	623	128.706950675046	0.333709716796875	0.333740234375	-7.7667236328125E-07	-2.59206814234858E-07	-429705.3125	0.000110484448669013
2	624	128.807658674792	0.323638916015625	0.32366943359375	-7.537841796875E-07	-2.43976899128029E-07	-429392.71875	0.000110407381725963
2	625	128.908366674538	0.313568115234375	0.31365966796875	-7.33032226562499E-07	-2.29922633820934E-07	-427893.4375	0.000110332512122113
2	626	129.009074674283	0.303497314453125	0.303497314453125	-7.12890625E-07	-2.16360376725788E-07	-425727.75	0.000110259708890226
2	627	129.109782674029	0.293426513671875	0.29339599609375	-6.9427490234375E-07	-2.03697467782149E-07	-422593.40625	0.000110188848339021
2	628	129.210490673775	0.283355712890625	0.283355712890625	-6.756591796875E-07	-1.91451889008931E-07	-419376.6875	0.000110119864984881
2	629	129.311198673521	0.273284912109375	0.2733154296875	-6.58264160156249E-07	-1.79913740794291E-07	-415206.3125	0.000110052700620145
2	630	129.411906673266	0.263214111328125	0.263214111328125	-6.41479492187499E-07	-1.68846440828929E-07	-410323.53125	0.000109987253381405
2	631	129.512614673012	0.253143310546875	0.253204345703125	-6.26525878906251E-07	-1.58639082314949E-07	-404140.28125	0.000109923406853341
2	632	129.613322672758	0.243072509765625	0.243072509765625	-6.121826171875E-07	-1.48804758737242E-07	-397058.84375	0.000109861030068714
2	633	129.714030672504	0.233001708984375	0.2330322265625	-5.9844970703125E-07	-1.39458066428233E-07	-389393.1875	0.000109800072095823
2	634	129.814738672249	0.222930908203125	0.22296142578125	-5.8563232421875E-07	-1.30573425849434E-07	-380719.125	0.000109740445623174
2	635	129.915446671995	0.212860107421875	0.212921142578125	-5.74340820312499E-07	-1.22289293358335E-07	-370722.65625	0.000109682034235448
2	636	130.016154671741	0.202789306640625	0.20281982421875	-5.63659667968749E-07	-1.14321345279222E-07	-359826.78125	0.000109624736069236
2	637	130.116862671487	0.192718505859375	0.192718505859375	-5.5389404296875E-07	-1.06745631001104E-07	-347933.875	0.000109568463813048
2	638	130.217570671232	0.182647705078125	0.182647705078125	-5.4595947265625E-07	-9.97182354467441E-08	-334544.46875	0.000109513079223689
2	639	130.318278670978	0.172576904296875	0.172607421875	-5.39550781250001E-07	-9.31304597884264E-08	-319909.53125	0.000109458422230091
2	640	130.418986670724	0.162506103515625	0.16253662109375	-5.35888671875E-07	-8.71015330972114E-08	-303302.96875	0.000109404267277569
2	641	130.519694670469	0.152435302734375	0.1524658203125	-5.34973144531251E-07	-8.15651191032885E-08	-284997.15625	0.00010935034515569
2	642	130.620402670215	0.142364501953125	0.142364501953125	-5.3741455078125E-07	-7.65087548870724E-08	-264906.28125	0.000109296342998277
2	643	130.721110669961	0.132293701171875	0.13232421875	-5.4595947265625E-07	-7.22436581668262E-08	-242370.046875	0.000109241795144044
2	644	130.821818669707	0.122222900390625	0.12225341796875	-5.6121826171875E-07	-6.86108521108508E-08	-217835.78125	0.000109186039480846
2	645	130.922526669452	0.112152099609375	0.112213134765625	-5.88378906250001E-07	-6.60238370642219E-08	-190715.765625	0.000109128151962068
2	646	131.023234669198	0.102081298828125	0.10211181640625	-6.3018798828125E-07	-6.43496349539419E-08	-162033.90625	0.000109066793811508
2	647	131.123942668944	0.092010498046875	0.092010498046875	-6.927490234375E-07	-6.37401811331983E-08	-132819.390625	0.00010900018241955
2	648	131.22465066869	0.081939697265625	0.082000732421875	-7.82165527343751E-07	-6.41381419086429E-08	-104838.0859375	0.000108925909444224
2	649	131.325358668435	0.071868896484375	0.0718994140625	-9.0484619140625E-07	-6.50579110583749E-08	-79460.375	0.000108840962639078
2	650	131.426066668181	0.061798095703125	0.061859130859375	-1.0650634765625E-06	-6.58838956724139E-08	-58080.23046875	0.000108741769508924
2	651	131.526774667927	0.051727294921875	0.051727294921875	-1.263427734375E-06	-6.53537028938445E-08	-40942.02734375	0.000108624524727929
2	652	131.627482667673	0.041656494140625	0.0417633056640625	-1.490478515625E-06	-6.22473095290843E-08	-28020.06640625	0.000108485852251761
2	653	131.728190667418	0.031585693359375	0.0316619873046875	-1.73004150390625E-06	-5.47765530711786E-08	-18301.287109375	0.000108323685708456
2	654	131.828898667164	0.021514892578125	0.0216033935546875	-1.95648193359375E-06	-4.22666488475443E-08	-11041.9599609375	0.000108138054201845
2	655	131.92960666691	0.011444091796875	0.011517333984375	-2.14691162109375E-06	-2.47266971342697E-08	-5364.60546875	0.000107931431557517
2	656	132.030314666655	0.001373291015625	0.0014495849609375	-2.2808837890625E-06	-3.30633476153253E-09	-635.536499023438	0.000107708474388346
2	657	132.131022666401	-0.008697509765625	-0.0085906982421875	-2.352294921875E-06	2.02078549449425E-08	3652.05004882813	0.000107475178083405
2	658	132.231730666147	-0.018768310546875	-0.0186676025390625	-2.36663818359375E-06	4.41794618666336E-08	7887.814453125	0.000107237559859641
2	659	132.332438665893	-0.028839111328125	-0.0287200927734375	-2.3370361328125E-06	6.7119891866696E-08	12289.109375	0.000107000712887384
2	660	132.433146665638	-0.038909912109375	-0.03875732421875	-2.279052734375E-06	8.83299833276396E-08	17005.892578125	0.000106768275145441
2	661	132.533854665384	-0.048980712890625	-0.0488525390625	-2.20672607421875E-06	1.07804176252557E-07	22138.017578125	0.000106542393041309
2	662	132.63456266513	-0.059051513671875	-0.0589599609375	-2.12860107421875E-06	1.25502225500895E-07	27698.92578125	0.000106324092485011
2	663	132.735270664876	-0.069122314453125	-0.069061279296875	-2.05230712890625E-06	1.41734957992412E-07	33650.55859375	0.000106113569927402
2	664	132.835978664621	-0.079193115234375	-0.07916259765625	-1.98089599609375E-06	1.56812873797207E-07	39963.0234375	0.000105910483398475
2	665	132.936686664367	-0.089263916015625	-0.089202880859375	-1.91619873046875E-06	1.70930448462059E-07	46552	0.000105714243545663
2	666	133.037394664113	-0.099334716796875	-0.09930419921875	-1.85791015625E-06	1.84498276212253E-07	53449.41015625	0.000105524202808738
2	667	133.138102663859	-0.109405517578125	-0.10931396484375	-1.80694580078125E-06	1.97524400391558E-07	60496.5390625	0.000105339662695769
2	668	133.238810663604	-0.119476318359375	-0.119384765625	-1.7633056640625E-06	2.10511828413473E-07	67705.09375	0.000105159888335038
2	669	133.33951866335	-0.129547119140625	-0.129486083984375	-1.72576904296875E-06	2.23463075599284E-07	75030.9453125	0.000104984203062486
2	670	133.440226663096	-0.139617919921875	-0.139556884765625	-1.69281005859375E-06	2.36243280937742E-07	82440.9609375	0.000104812061181292
2	671	133.540934662842	-0.149688720703125	-0.14959716796875	-1.66534423828125E-06	2.49130778229301E-07	89829.578125	0.000104642960650381
2	672	133.641642662587	-0.159759521484375	-0.15966796875	-1.64276123046875E-06	2.62296339315071E-07	97194.875	0.000104476384876762
2	673	133.742350662333	-0.169830322265625	-0.169647216796875	-1.6241455078125E-06	2.75531760962622E-07	104453.2109375	0.000104311882751063
2	674	133.843058662079	-0.179901123046875	-0.179718017578125	-1.6094970703125E-06	2.89255609686734E-07	111660.9765625	0.000104149061371572
2	675	133.943766661824	-0.189971923828125	-0.189910888671875	-1.59820556640625E-06	3.0351662871908E-07	118827.578125	0.000103987535112537
2	676	134.04447466157	-0.200042724609375	-0.19989013671875	-1.59210205078125E-06	3.18245469088652E-07	125551.0859375	0.000103826896520332
2	677	134.145182661316	-0.189971923828125	-0.189849853515625	-1.427001953125E-06	2.70916103772834E-07	133041.0625	0.000103674872661941
