Potential - Start -0.2 V, Upper Vertex 1.5 V, Lower Vertex -0.2 V, Stop -0.19 V; Scan - # end cross 5, Rate 0.1 Vps, Step 0.01 V 
Scan	Index	Time (s)	Potential applied (V)	WE(1).Potential (V)	WE(1).Current (A)	WE(1).Power (W)	WE(1).Resistance (Ω)	WE(1).Charge (C)
1	1	66.7565898314558	-0.189971923828125	-0.189849853515625	-2.26440429687499E-07	4.29896793718854E-08	838409.75	0
1	2	66.8572978312015	-0.179901123046875	-0.17974853515625	-1.92871093749999E-07	3.46682966778644E-08	931962.0625	-2.11140118722142E-08
1	3	66.9580058309473	-0.169830322265625	-0.169647216796875	-1.67236328125001E-07	2.83711774073936E-08	1014416.0625	-3.92468599841322E-08
1	4	67.058713830693	-0.159759521484375	-0.159637451171875	-1.4495849609375E-07	2.31408048279036E-08	1101263.25	-5.49671170801957E-08
1	5	67.1594218304388	-0.149688720703125	-0.1495361328125	-1.239013671875E-07	1.85277304609599E-08	1206896.625	-6.8505286776599E-08
1	6	67.2601298301845	-0.139617919921875	-0.139495849609375	-1.0498046875E-07	1.46443390747208E-08	1328779.125	-8.00304036374655E-08
1	7	67.3608378299302	-0.129547119140625	-0.12945556640625	-8.544921875E-08	1.10618767479309E-08	1515000	-8.96192986488131E-08
1	8	67.461545829676	-0.119476318359375	-0.119384765625	-6.62231445312494E-08	7.90603493783237E-09	1802765	-9.72566098766947E-08
1	9	67.5622538294217	-0.109405517578125	-0.109222412109375	-4.45556640624997E-08	4.86647699915466E-09	2451370	-1.02834761150916E-07
1	10	67.6629618291674	-0.099334716796875	-0.0992431640625	-2.07519531250006E-08	2.05948946785384E-09	4782353	-1.06123266618852E-07
1	11	67.7636698289132	-0.089263916015625	-0.089202880859375	9.46044921874972E-09	-8.43899339297849E-10	-9429032	-1.0669183581058E-07
1	12	67.8643778286589	-0.079193115234375	-0.079193115234375	4.60815429687497E-08	-3.64934082952573E-09	-1718543.125	-1.03895075653782E-07
1	13	67.9650858284047	-0.069122314453125	-0.069061279296875	9.42993164062503E-08	-6.51243148297453E-09	-732362.4375	-9.68263336176278E-08
1	14	68.0657938281504	-0.059051513671875	-0.05902099609375	1.568603515625E-07	-9.25805387907985E-09	-376264.59375	-8.41794403072527E-08
1	15	68.1665018278961	-0.048980712890625	-0.0487884521484375	2.410888671875E-07	-1.17623519813037E-08	-202367.09375	-6.4141104871851E-08
1	16	68.2672098276419	-0.038909912109375	-0.03878173828125	3.51867675781251E-07	-1.36460407418326E-08	-110216.828125	-3.42833743616211E-08
1	17	68.3679178273876	-0.028839111328125	-0.0287139892578125	4.9560546875E-07	-1.42308094197574E-08	-57937.19921875	8.39028491128602E-09
1	18	68.4686258271333	-0.018768310546875	-0.0186737060546875	6.7474365234375E-07	-1.25999655153919E-08	-27675.26171875	6.73220412750197E-08
1	19	68.5693338268791	-0.008697509765625	-0.0085784912109375	8.85925292968751E-07	-7.59990204102223E-09	-9683.0869140625	1.45907961268676E-07
1	20	68.6700418266248	0.001373291015625	0.0014617919921875	1.12060546875E-06	1.63809221742639E-09	1304.46630859375	2.46944807713589E-07
1	21	68.7707498263705	0.011444091796875	0.011517333984375	1.36016845703125E-06	1.56655133309869E-08	8467.5791015625	3.71861716530475E-07
1	22	68.8714578261163	0.021514892578125	0.0215911865234375	1.580810546875E-06	3.41315740115533E-08	13658.3017578125	5.19951754540671E-07
1	23	68.972165825862	0.031585693359375	0.03167724609375	1.7608642578125E-06	5.57793278233021E-08	17989.6015625	6.88218449340638E-07
1	24	69.0728738256078	0.041656494140625	0.0417633056640625	1.885986328125E-06	7.87650193956324E-08	22144.013671875	8.71851966621762E-07
1	25	69.1735818253535	0.051727294921875	0.051727294921875	1.95068359375E-06	1.00903584154821E-07	26517.521484375	1.06504364794091E-06
1	26	69.2742898250992	0.061798095703125	0.061859130859375	1.96258544921875E-06	1.21403829211886E-07	31519.205078125	1.26209238260344E-06
1	27	69.374997824845	0.071868896484375	0.071990966796875	1.93511962890625E-06	1.39311126190478E-07	37202.3359375	1.45835736020672E-06
1	28	69.4757058245907	0.081939697265625	0.08203125	1.8829345703125E-06	1.54459470991242E-07	43565.640625	1.65061169354885E-06
1	29	69.5764138243364	0.092010498046875	0.092041015625	1.81671142578125E-06	1.67211950952151E-07	50663.53125	1.83690372068668E-06
1	30	69.6771218240822	0.102081298828125	0.102142333984375	1.746826171875E-06	1.78424897967489E-07	58473.09765625	2.01634202312562E-06
1	31	69.7778298238279	0.112152099609375	0.1121826171875	1.6778564453125E-06	1.88226323416529E-07	66860.6796875	2.18878858504468E-06
1	32	69.8785378235737	0.122222900390625	0.12225341796875	1.61285400390625E-06	1.97176902361207E-07	75799.4375	2.35448897001334E-06
1	33	69.9792458233194	0.132293701171875	0.132354736328125	1.5533447265625E-06	2.05592527890985E-07	85206.2890625	2.51391975325532E-06
1	34	70.0799538230651	0.142364501953125	0.142364501953125	1.4996337890625E-06	2.13494615763921E-07	94932.84375	2.66764936895925E-06
1	35	70.1806618228109	0.152435302734375	0.152435302734375	1.451416015625E-06	2.21247034914995E-07	105025.234375	2.81624647868739E-06
1	36	70.2813698225566	0.162506103515625	0.162567138671875	1.40777587890625E-06	2.28858084483363E-07	115478	2.96021835310967E-06
1	37	70.3820778223023	0.172576904296875	0.17266845703125	1.36932373046875E-06	2.3643902125059E-07	126097.6171875	3.10005634673871E-06
1	38	70.4827858220481	0.182647705078125	0.18267822265625	1.3348388671875E-06	2.43845988734392E-07	136854.140625	3.236221800762E-06
1	39	70.5834938217938	0.192718505859375	0.1927490234375	1.30401611328125E-06	2.51347842095129E-07	147811.84375	3.36909874931735E-06
1	40	70.6842018215395	0.202789306640625	0.20281982421875	1.2762451171875E-06	2.58847791201333E-07	158919.1875	3.49902506968647E-06
1	41	70.7849098212853	0.212860107421875	0.212890625	1.251220703125E-06	2.66373149315768E-07	170146.359375	3.62629316441598E-06
1	42	70.885617821031	0.222930908203125	0.222930908203125	1.22833251953125E-06	2.73833279607061E-07	181490.6875	3.75114859707537E-06
1	43	70.9863258207768	0.233001708984375	0.2330322265625	1.2078857421875E-06	2.81476303598538E-07	192925.71875	3.87382169719785E-06
1	44	71.0870338205225	0.243072509765625	0.243133544921875	1.1895751953125E-06	2.89225624783285E-07	204386.859375	3.99454347643768E-06
1	45	71.1877418202682	0.253143310546875	0.253173828125	1.17279052734375E-06	2.96919864695155E-07	215873.03125	4.11349810747197E-06
1	46	71.288449820014	0.263214111328125	0.26324462890625	1.1572265625E-06	3.04633658743114E-07	227478.90625	4.23082383349538E-06
1	47	71.3891578197597	0.273284912109375	0.27325439453125	1.1431884765625E-06	3.12381274625295E-07	239028.296875	4.34665889770258E-06
1	48	71.4898658195054	0.283355712890625	0.2833251953125	1.13037109375E-06	3.20262614650346E-07	250647.953125	4.46114154328825E-06
1	49	71.5905738192512	0.293426513671875	0.293426513671875	1.1187744140625E-06	3.28278076722199E-07	262274.96875	4.57439500678447E-06
1	50	71.6912818189969	0.303497314453125	0.30352783203125	1.10809326171875E-06	3.36337137696319E-07	273919.03125	4.68652706331341E-06
1	51	71.7919898187426	0.313568115234375	0.31365966796875	1.0980224609375E-06	3.44405322039165E-07	285658.71875	4.79761365568265E-06
1	52	71.8926978184884	0.323638916015625	0.323699951171875	1.0894775390625E-06	3.52663846570067E-07	297114.84375	4.90776301376172E-06
1	53	71.9934058182341	0.333709716796875	0.333709716796875	1.082763671875E-06	3.61328773124114E-07	308201.8125	5.01714430356515E-06
1	54	72.0941138179799	0.343780517578125	0.34381103515625	1.0760498046875E-06	3.69957803059151E-07	319512.1875	5.12584892931045E-06
1	55	72.1948218177256	0.353851318359375	0.353912353515625	1.07025146484375E-06	3.78775183662583E-07	330681.5	5.23392372997478E-06
1	56	72.2955298174713	0.363922119140625	0.363983154296875	1.06536865234375E-06	3.87776253774064E-07	341649.9375	5.34146101927035E-06
1	57	72.3962378172171	0.373992919921875	0.3740234375	1.06109619140625E-06	3.96874867192309E-07	352487.78125	5.44853674000478E-06
1	58	72.4969458169628	0.384063720703125	0.384063720703125	1.0577392578125E-06	4.06239280437148E-07	363098.65625	5.55522865397506E-06
1	59	72.5976538167085	0.394134521484375	0.394134521484375	1.0552978515625E-06	4.15929321206931E-07	373481.78125	5.66162862014608E-06
1	60	72.6983618164543	0.404205322265625	0.40423583984375	1.05377197265625E-06	4.2597238802955E-07	383608.46875	5.7678284974827E-06
1	61	72.7990698162	0.414276123046875	0.41424560546875	1.0516357421875E-06	4.35635485018793E-07	393905.96875	5.87384420214221E-06
1	62	72.8997778159458	0.424346923828125	0.424346923828125	1.05072021484375E-06	4.45869915211006E-07	403862.90625	5.97970620219712E-06
1	63	73.0004858156915	0.434417724609375	0.434478759765625	1.05010986328125E-06	4.56250432989691E-07	413746	6.08549180469709E-06
1	64	73.1011938154372	0.444488525390625	0.444549560546875	1.0498046875E-06	4.66690181610829E-07	423459.34375	6.19123056821991E-06
1	65	73.201901815183	0.454559326171875	0.45458984375	1.05010986328125E-06	4.77369269447081E-07	432897.40625	6.29696978649008E-06
1	66	73.3026098149287	0.464630126953125	0.464599609375	1.05072021484375E-06	4.8816423259268E-07	442172.5	6.40275493424269E-06
1	67	73.4033178146744	0.474700927734375	0.47467041015625	1.05255126953125E-06	4.99614941418258E-07	450971.28125	6.5086633185274E-06
1	68	73.5040258144202	0.484771728515625	0.484771728515625	1.05438232421875E-06	5.11134714997752E-07	459768.4375	6.61475587548921E-06
1	69	73.6047338141659	0.494842529296875	0.494842529296875	1.05712890625E-06	5.2311230547275E-07	468100.46875	6.72107853461057E-06
1	70	73.7054418139116	0.504913330078125	0.504913330078125	1.06048583984375E-06	5.35453409611364E-07	476115.125	6.82770905768848E-06
1	71	73.8061498136574	0.514984130859375	0.51495361328125	1.0662841796875E-06	5.49086905721197E-07	482942.1875	6.93480023983284E-06
1	72	73.9068578134031	0.525054931640625	0.525054931640625	1.07269287109375E-06	5.63222670280084E-07	489473.6875	7.04250669514295E-06
1	73	74.0075658131489	0.535125732421875	0.53509521484375	1.08123779296875E-06	5.78565163777967E-07	494891.34375	7.15096530257142E-06
1	74	74.1082738128946	0.545196533203125	0.545196533203125	1.09222412109375E-06	5.95476819853502E-07	499161.78125	7.26040798326721E-06
1	75	74.2089818126403	0.555267333984375	0.555267333984375	1.107177734375E-06	6.14779594343418E-07	501516	7.37115669835475E-06
1	76	74.3096898123861	0.565338134765625	0.56524658203125	1.12701416015625E-06	6.37040898254781E-07	501543.46875	7.48365710023791E-06
1	77	74.4103978121318	0.575408935546875	0.575439453125	1.15478515625E-06	6.64508888803539E-07	498308.6875	7.59855493015493E-06
1	78	74.5111058118775	0.585479736328125	0.585418701171875	1.19293212890625E-06	6.98364772233617E-07	490739.3125	7.71677150623873E-06
1	79	74.6118138116233	0.595550537109375	0.59552001953125	1.24786376953125E-06	7.43127884561545E-07	477231.59375	7.83967607276281E-06
1	80	74.712521811369	0.605621337890625	0.6055908203125	1.32568359375E-06	8.02821773504547E-07	456814	7.96926451585023E-06
1	81	74.8132298111148	0.615692138671875	0.61566162109375	1.4324951171875E-06	8.81932237462024E-07	429782.71875	8.10814981377916E-06
1	82	74.9139378108605	0.625762939453125	0.625762939453125	1.57684326171875E-06	9.86730128715863E-07	396845.375	8.25968163553625E-06
1	83	75.0146458106062	0.635833740234375	0.63580322265625	1.761474609375E-06	1.119951207329E-06	360949.4375	8.42777899379143E-06
1	84	75.115353810352	0.645904541015625	0.645904541015625	1.98516845703125E-06	1.28222927742172E-06	325365.125	8.6164382082643E-06
1	85	75.2160618100977	0.655975341796875	0.6558837890625	2.24212646484375E-06	1.47057437516196E-06	292527.5625	8.82929907675134E-06
1	86	75.3167698098434	0.666046142578125	0.666015625	2.51495361328125E-06	1.67499842973484E-06	264822.21875	9.06883724383079E-06
1	87	75.4174778095892	0.676116943359375	0.67608642578125	2.78106689453125E-06	1.88024148428667E-06	243103.265625	9.33551291382173E-06
1	88	75.5181858093349	0.686187744140625	0.686065673828125	3.0157470703125E-06	2.06900062948989E-06	227494.4375	9.62740523391403E-06
1	89	75.6188938090806	0.696258544921875	0.6961669921875	3.19793701171875E-06	2.2262979655352E-06	217692.53125	9.94028960121796E-06
1	90	75.7196018088264	0.706329345703125	0.70623779296875	3.3209228515625E-06	2.34536128118634E-06	212663.109375	1.02685398815083E-05
1	91	75.8203098085721	0.716400146484375	0.716339111328125	3.38623046875E-06	2.42568921748898E-06	211544.703125	1.06062716440647E-05
1	92	75.9210178083179	0.726470947265625	0.72637939453125	3.40911865234375E-06	2.47631351157906E-06	213069.5625	1.09484453787445E-05
1	93	76.0217258080636	0.736541748046875	0.736480712890625	3.41094970703125E-06	2.51209849011502E-06	215916.625	1.12918623926817E-05
1	94	76.1224338078093	0.746612548828125	0.746551513671875	3.4124755859375E-06	2.54758879236761E-06	218771.25	1.1635449482128E-05
1	95	76.2231418075551	0.756683349609375	0.75714111328125	3.4356689453125E-06	2.60128604168131E-06	220376.640625	1.19802807603264E-05
1	96	76.3238498073008	0.766754150390625	0.76690673828125	3.499755859375E-06	2.68398639491352E-06	219131.5	1.23295076264185E-05
1	97	76.4245578070465	0.776824951171875	0.77728271484375	3.623046875E-06	2.81613165498129E-06	214538.421875	1.2688168681052E-05
1	98	76.5252658067923	0.786895751953125	0.78704833984375	3.8226318359375E-06	3.0085959679127E-06	205891.75	1.30630887724692E-05
1	99	76.625973806538	0.796966552734375	0.79803466796875	4.1107177734375E-06	3.28049532072328E-06	194135.109375	1.34625643113395E-05
1	100	76.7266818062838	0.807037353515625	0.806884765625	4.488525390625E-06	3.62172249879222E-06	179766.125	1.38955711008748E-05
1	101	76.8273898060295	0.817108154296875	0.81695556640625	4.9468994140625E-06	4.04139700549422E-06	165144.96875	1.4370682038134E-05
1	102	76.9280978057752	0.827178955078125	0.8270263671875	5.46875E-06	4.52280028184759E-06	151227.6875	1.4895152162353E-05
1	103	77.028805805521	0.837249755859375	0.83709716796875	6.011962890625E-06	5.03259707329562E-06	139238.578125	1.54732515511569E-05
1	104	77.1295138052667	0.847320556640625	0.84747314453125	6.54296875E-06	5.54499001736986E-06	129524.2578125	1.61054431373486E-05
1	105	77.2302218050124	0.857391357421875	0.858154296875	7.0098876953125E-06	6.01556530455127E-06	122420.546875	1.67878824868239E-05
1	106	77.3309298047582	0.867462158203125	0.86761474609375	7.3822021484375E-06	6.40490725345444E-06	117527.90625	1.75125824171118E-05
1	107	77.4316378045039	0.877532958984375	0.877685546875	7.6171875E-06	6.68549500915105E-06	115224.359375	1.82678613782628E-05
1	108	77.5323458042496	0.887603759765625	0.887451171875	7.7117919921875E-06	6.84383894622442E-06	115077.1640625	1.90397367987316E-05
1	109	77.6330538039954	0.897674560546875	0.8978271484375	7.67822265625E-06	6.89371654516435E-06	116931.640625	1.98146863112925E-05
1	110	77.7337618037411	0.907745361328125	0.90789794921875	7.550048828125E-06	6.85467375660664E-06	120250.609375	2.05814903893042E-05
1	111	77.8344698034869	0.917816162109375	0.91796875	7.366943359375E-06	6.76262334309286E-06	124606.46875	2.13326202356257E-05
1	112	77.9351778032326	0.927886962890625	0.9283447265625	7.1685791015625E-06	6.65491234030924E-06	129501.9140625	2.20645415538456E-05
1	113	78.0358858029783	0.937957763671875	0.9375	6.9854736328125E-06	6.54888162898715E-06	134207.078125	2.27772561629536E-05
1	114	78.1365938027241	0.948028564453125	0.948486328125	6.8267822265625E-06	6.47510933049489E-06	138936.078125	2.34727576753357E-05
1	115	78.2373018024698	0.958099365234375	0.95794677734375	6.7108154296875E-06	6.42860413790913E-06	142746.703125	2.41544294112828E-05
1	116	78.3380098022155	0.968170166015625	0.968017578125	6.6436767578125E-06	6.43119574306183E-06	145705.109375	2.48268825089326E-05
1	117	78.4387178019613	0.978240966796875	0.97808837890625	6.62841796875E-06	6.48317836748902E-06	147559.859375	2.54951846727636E-05
1	118	78.539425801707	0.988311767578125	0.9881591796875	6.658935546875E-06	6.58008821119438E-06	148395.96875	2.61642562691122E-05
1	119	78.6401338014527	0.998382568359375	0.99761962890625	6.72607421875E-06	6.71006318953005E-06	148321.234375	2.68382445938187E-05
1	120	78.7408418011985	1.00845336914063	1.00860595703125	6.805419921875E-06	6.8639869823528E-06	148206.28125	2.75196107395459E-05
1	121	78.8415498009442	1.01852416992188	1.01837158203125	6.8756103515625E-06	7.00192595104454E-06	148113.625	2.8208503863425E-05
1	122	78.94225780069	1.02859497070313	1.02874755859375	6.9183349609375E-06	7.11721986590419E-06	148698.71875	2.8903084967169E-05
1	123	79.0429658004357	1.03866577148438	1.03851318359375	6.915283203125E-06	7.18161254553706E-06	150176.53125	2.95996633212781E-05
1	124	79.1436738001814	1.04873657226563	1.04888916015625	6.8695068359375E-06	7.20535126674804E-06	152687.703125	3.02937824017135E-05
1	125	79.2443817999272	1.05880737304688	1.05804443359375	6.787109375E-06	7.18106321073719E-06	155890.296875	3.09814458887558E-05
1	126	79.3450897996729	1.06887817382813	1.06842041015625	6.67724609375E-06	7.13410599928466E-06	160009.140625	3.16594305331819E-05
1	127	79.4457977994186	1.07894897460938	1.07940673828125	6.55517578125E-06	7.0757009780209E-06	164664.796875	3.23257372656371E-05
1	128	79.5465057991644	1.08901977539063	1.0888671875	6.4300537109375E-06	7.00147438692511E-06	169340.296875	3.29795948346145E-05
1	129	79.6472137989101	1.09909057617188	1.09954833984375	6.3079833984375E-06	6.93593256073655E-06	174310.59375	3.36210068780929E-05
1	130	79.7479217986559	1.10916137695313	1.10870361328125	6.1920166015625E-06	6.86511111780419E-06	179053.734375	3.42504317814019E-05
1	131	79.8486297984016	1.11923217773438	1.119384765625	6.085205078125E-06	6.81168558003264E-06	183951.859375	3.48686371580698E-05
1	132	79.9493377981473	1.12930297851563	1.129150390625	5.9844970703125E-06	6.75739693178912E-06	188679.25	3.54763942596037E-05
1	133	80.0500457978931	1.13937377929688	1.13922119140625	5.89599609375E-06	6.71684347253176E-06	193219.46875	3.60746271326207E-05
1	134	80.1507537976388	1.14944458007813	1.14990234375	5.8135986328125E-06	6.68507027512533E-06	197795.28125	3.66642525477801E-05
1	135	80.2514617973845	1.15951538085938	1.15966796875	5.7373046875E-06	6.65336801830563E-06	202127.671875	3.72458853235003E-05
1	136	80.3521697971303	1.16958618164063	1.16943359375	5.670166015625E-06	6.6308825807937E-06	206243.265625	3.78202967112884E-05
1	137	80.452877796876	1.17965698242188	1.17950439453125	5.609130859375E-06	6.61599460727302E-06	210282.921875	3.83882543246727E-05
1	138	80.5535857966217	1.18972778320313	1.18927001953125	5.5511474609375E-06	6.60181285638828E-06	214238.59375	3.89502201869618E-05
1	139	80.6542937963675	1.19979858398438	1.199951171875	5.499267578125E-06	6.59885245113401E-06	218202	3.95066526834853E-05
1	140	80.7550017961132	1.20986938476563	1.209716796875	5.4534912109375E-06	6.59717989037745E-06	221824.28125	4.00581666326616E-05
1	141	80.855709795859	1.21994018554688	1.219482421875	5.4107666015625E-06	6.59833449390135E-06	225380.71875	4.0605227695778E-05
1	142	80.9564177956047	1.23001098632813	1.23016357421875	5.37109375E-06	6.60732393953367E-06	229034.09375	4.11481341870967E-05
1	143	81.0571257953504	1.24008178710938	1.240234375	5.3375244140625E-06	6.61978128846386E-06	232361.359375	4.16873590438627E-05
1	144	81.1578337950962	1.25015258789063	1.25030517578125	5.303955078125E-06	6.63156197333592E-06	235730.734375	4.22231969423592E-05
1	145	81.2585417948419	1.26022338867188	1.259765625	5.2764892578125E-06	6.64713934384054E-06	238750.734375	4.27559680247214E-05
1	146	81.3592497945876	1.27029418945313	1.27044677734375	5.2490234375E-06	6.66860478304443E-06	242034.890625	4.32859669672325E-05
1	147	81.4599577943334	1.28036499023438	1.280517578125	5.2276611328125E-06	6.69411156195565E-06	244950.390625	4.38135102740489E-05
1	148	81.5606657940791	1.29043579101563	1.2908935546875	5.206298828125E-06	6.72077749186428E-06	247948.421875	4.43389035353903E-05
1	149	81.6613737938249	1.30050659179688	1.300048828125	5.18798828125E-06	6.7446380853653E-06	250588.234375	4.48622959083878E-05
1	150	81.7620817935706	1.31057739257813	1.31072998046875	5.1727294921875E-06	6.78005153531558E-06	253392.34375	4.53840002592187E-05
1	151	81.8627897933163	1.32064819335938	1.32080078125	5.1605224609375E-06	6.8160220507707E-06	255943.234375	4.5904322178103E-05
1	152	81.9634977930621	1.33071899414063	1.33087158203125	5.1513671875E-06	6.85580789649975E-06	258353.09375	4.64235672552604E-05
1	153	82.0642057928078	1.34078979492188	1.3409423828125	5.145263671875E-06	6.89950184096233E-06	260616.859375	4.69420410809107E-05
1	154	82.1649137925535	1.35086059570313	1.3507080078125	5.13916015625E-06	6.94150412527961E-06	262826.625	4.74599037261214E-05
1	155	82.2656217922993	1.36093139648438	1.3604736328125	5.1361083984375E-06	6.98754001859925E-06	264884.125	4.79773043480236E-05
1	156	82.366329792045	1.37100219726563	1.370849609375	5.13916015625E-06	7.04501508153044E-06	266745.875	4.84947049699258E-05
1	157	82.4670377917907	1.38107299804688	1.38092041015625	5.1422119140625E-06	7.10098493073019E-06	268546	4.90124148200266E-05
1	158	82.5677457915365	1.39114379882813	1.39129638671875	5.1483154296875E-06	7.16283238944015E-06	270243.03125	4.95305830554571E-05
1	159	82.6684537912822	1.40121459960938	1.4013671875	5.16357421875E-06	7.23606353858486E-06	271394.78125	5.00498281326145E-05
1	160	82.769161791028	1.41128540039063	1.41143798828125	5.181884765625E-06	7.31390900909901E-06	272379.28125	5.05707648699172E-05
1	161	82.8698697907737	1.42135620117188	1.42120361328125	5.206298828125E-06	7.39921051717829E-06	272977.71875	5.10938480147161E-05
1	162	82.9705777905194	1.43142700195313	1.43157958984375	5.23681640625E-06	7.49691935197916E-06	273368.3125	5.16197032993659E-05
1	163	83.0712857902652	1.44149780273438	1.44134521484375	5.2764892578125E-06	7.60524198994972E-06	273163.6875	5.21490910614375E-05
1	164	83.1719937900109	1.45156860351563	1.45172119140625	5.322265625E-06	7.72644580138149E-06	272763.75	5.2682778914459E-05
1	165	83.2727017897566	1.46163940429688	1.46240234375	5.3802490234375E-06	7.8680886872462E-06	271809.4375	5.32216945430264E-05
1	166	83.3734097895024	1.47171020507813	1.4715576171875	5.450439453125E-06	8.02063550509047E-06	269988.8125	5.37670603080187E-05
1	167	83.4741177892481	1.48178100585938	1.48193359375	5.535888671875E-06	8.20381956145866E-06	267695.6875	5.43202659173403E-05
1	168	83.5748257889938	1.49185180664063	1.49200439453125	5.6396484375E-06	8.41438031784492E-06	264556.28125	5.48829993931577E-05
1	169	83.6755337887396	1.50192260742188	1.50177001953125	5.76171875E-06	8.65277615957893E-06	260646.203125	5.5457105190726E-05
1	170	83.7762417884853	1.49185180664063	1.49169921875	5.419921875E-06	8.08489312476013E-06	275225.21875	5.60201442567632E-05
1	171	83.8769497882311	1.48178100585938	1.48193359375	5.169677734375E-06	7.66111861594254E-06	286658.8125	5.6553373724455E-05
1	172	83.9776577879768	1.47171020507813	1.47186279296875	4.97314453125E-06	7.31978616386186E-06	295962.21875	5.70641059312038E-05
1	173	84.0783657877225	1.46163940429688	1.4617919921875	4.8187255859375E-06	7.04397416484426E-06	303356.5625	5.75571648369078E-05
1	174	84.1790737874683	1.45156860351563	1.451416015625	4.69818115234375E-06	6.81901474308688E-06	308931.5	5.80363812332507E-05
1	175	84.279781787214	1.44149780273438	1.44134521484375	4.60845947265625E-06	6.64238086756086E-06	312760.75	5.85050074732862E-05
1	176	84.3804897869597	1.43142700195313	1.4312744140625	4.547119140625E-06	6.50817491987254E-06	314765.125	5.89660266996361E-05
1	177	84.4811977867055	1.42135620117188	1.42120361328125	4.50958251953125E-06	6.40903499515844E-06	315151.90625	5.94220655329991E-05
1	178	84.5819057864512	1.41128540039063	1.41143798828125	4.4854736328125E-06	6.33096806268441E-06	314668.65625	5.98750048084185E-05
1	179	84.682613786197	1.40121459960938	1.40106201171875	4.4683837890625E-06	6.26048267804435E-06	313550.0625	6.03258667979389E-05
1	180	84.7833217859427	1.39114379882813	1.39129638671875	4.45465087890625E-06	6.1977398218005E-06	312324.4375	6.07751790084876E-05
1	181	84.8840297856884	1.38107299804688	1.38153076171875	4.44305419921875E-06	6.13821566730621E-06	310941.6875	6.12232106504962E-05
1	182	84.9847377854342	1.37100219726563	1.370849609375	4.43115234375E-06	6.07444326305995E-06	309366.40625	6.16700635873713E-05
1	183	85.0854457851799	1.36093139648438	1.36077880859375	4.41864013671875E-06	6.01279180045822E-06	307963.28125	6.21156868874095E-05
1	184	85.1861537849256	1.35086059570313	1.3507080078125	4.4049072265625E-06	5.94974335399456E-06	306637.125	6.2559985963162E-05
1	185	85.2868617846714	1.34078979492188	1.34063720703125	4.3890380859375E-06	5.88410784985172E-06	305451.25	6.30028007435612E-05
1	186	85.3875697844171	1.33071899414063	1.33056640625	4.371337890625E-06	5.81635504204314E-06	304384.28125	6.34439202258363E-05
1	187	85.4882777841628	1.32064819335938	1.32080078125	4.3524169921875E-06	5.74867544855806E-06	303463.75	6.38831916148774E-05
1	188	85.5889857839086	1.31057739257813	1.31072998046875	4.3328857421875E-06	5.67924280403531E-06	302507.40625	6.43205348751508E-05
1	189	85.6896937836543	1.30050659179688	1.30035400390625	4.31182861328125E-06	5.6069034144457E-06	301578.3125	6.47558263153769E-05
1	190	85.7904017834001	1.29043579101563	1.290283203125	4.2901611328125E-06	5.53552263227175E-06	300754.03125	6.51889713481069E-05
1	191	85.8911097831458	1.28036499023438	1.280517578125	4.26910400390625E-06	5.46666251466377E-06	299949.96875	6.56199699733406E-05
1	192	85.9918177828915	1.27029418945313	1.27044677734375	4.24774169921875E-06	5.396530013968E-06	299087.5625	6.60488221910782E-05
1	193	86.0925257826373	1.26022338867188	1.26007080078125	4.22698974609375E-06	5.32630656380206E-06	298101.21875	6.64755643811077E-05
1	194	86.193233782383	1.25015258789063	1.25030517578125	4.2059326171875E-06	5.25869882039842E-06	297271.8125	6.69001892674714E-05
1	195	86.2939417821287	1.24008178710938	1.23992919921875	4.18609619140625E-06	5.19046307090321E-06	296201.78125	6.7322762333788E-05
1	196	86.3946497818745	1.23001098632813	1.23016357421875	4.1656494140625E-06	5.12443011757568E-06	295311.34375	6.77433054079302E-05
1	197	86.4953577816202	1.21994018554688	1.2200927734375	4.14581298828125E-06	5.05827620145283E-06	294295.1875	6.81618257658556E-05
1	198	86.596065781366	1.20986938476563	1.21002197265625	4.12689208984375E-06	4.99362977279816E-06	293204.1875	6.85783888911828E-05
1	199	86.6967737811117	1.19979858398438	1.19964599609375	4.107666015625E-06	4.92774506710703E-06	292050.53125	6.89930311636999E-05
1	200	86.7974817808574	1.18972778320313	1.19049072265625	4.088134765625E-06	4.86688622913789E-06	291206.34375	6.94057234795764E-05
1	201	86.8981897806032	1.17965698242188	1.17950439453125	4.0692138671875E-06	4.79965547128813E-06	289860.5	6.98164803907275E-05
1	202	86.9988977803489	1.16958618164063	1.1700439453125	4.049072265625E-06	4.73759246233385E-06	288965.9375	7.02252655173652E-05
1	203	87.0996057800946	1.15951538085938	1.1590576171875	4.0283203125E-06	4.669055215345E-06	287727.28125	7.0631991547998E-05
1	204	87.2003137798404	1.14944458007813	1.14898681640625	4.00634765625E-06	4.60324008599855E-06	286791.625	7.10365711711347E-05
1	205	87.3010217795861	1.13937377929688	1.1395263671875	3.98193359375E-06	4.53751817985903E-06	286174.15625	7.14388152118772E-05
1	206	87.4017297793318	1.12930297851563	1.129150390625	3.955078125E-06	4.46587819169508E-06	285493.8125	7.18384762876667E-05
1	207	87.5024377790776	1.11923217773438	1.119384765625	3.9239501953125E-06	4.39241011918057E-06	285269.875	7.22352124284953E-05
1	208	87.6031457788233	1.10916137695313	1.10931396484375	3.88763427734375E-06	4.31260696132085E-06	285344.21875	7.26285579730757E-05
1	209	87.7038537785691	1.09909057617188	1.09893798828125	3.84124755859375E-06	4.2212923290208E-06	286088.84375	7.30177416699007E-05
1	210	87.8045617783148	1.08901977539063	1.0888671875	3.7841796875E-06	4.12046892961371E-06	287741.9375	7.34017085051164E-05
1	211	87.9052697780605	1.07894897460938	1.07879638671875	3.71063232421875E-06	4.00301678382675E-06	290731.15625	7.37791051506065E-05
1	212	88.0059777778063	1.06887817382813	1.06903076171875	3.61602783203125E-06	3.86564488508157E-06	295636.78125	7.41480325814337E-05
1	213	88.106685777552	1.05880737304688	1.0589599609375	3.494873046875E-06	3.7009306197433E-06	303003.84375	7.45060897315852E-05
1	214	88.2073937772977	1.04873657226563	1.0479736328125	3.343505859375E-06	3.50390587300353E-06	313435.5625	7.48504317016341E-05
1	215	88.3081017770435	1.03866577148438	1.0382080078125	3.1610107421875E-06	3.28178657582612E-06	328441.78125	7.51779589336365E-05
1	216	88.4088097767892	1.02859497070313	1.02935791015625	2.95196533203125E-06	3.03862884720729E-06	348702.5625	7.54857755964622E-05
1	217	88.5095177765349	1.01852416992188	1.01837158203125	2.72705078125E-06	2.77715093943698E-06	373433.3125	7.57717352826148E-05
1	218	88.6102257762807	1.00845336914063	1.00860595703125	2.50335693359375E-06	2.52490076491085E-06	402901.375	7.6035110396333E-05
1	219	88.7109337760264	0.998382568359375	0.99853515625	2.303466796875E-06	2.30009254664765E-06	433492.3125	7.62771524023265E-05
1	220	88.8116417757722	0.988311767578125	0.98876953125	2.14324951171875E-06	2.11917972592346E-06	461341.3125	7.65010627219453E-05
1	221	88.9123497755179	0.978240966796875	0.9783935546875	2.03094482421875E-06	1.98706334231247E-06	481743.03125	7.67112433095463E-05
1	222	89.0130577752636	0.968170166015625	0.96832275390625	1.96319580078125E-06	1.90100706731755E-06	493238.03125	7.69123653299175E-05
1	223	89.1137657750094	0.958099365234375	0.958251953125	1.927490234375E-06	1.84702116712288E-06	497150.125	7.7108277764637E-05
1	224	89.2144737747551	0.948028564453125	0.94818115234375	1.90460205078125E-06	1.80590768650291E-06	497836.90625	7.73012434365228E-05
1	225	89.3151817745008	0.937957763671875	0.93780517578125	1.87774658203125E-06	1.76096034465445E-06	499431.1875	7.74916989030316E-05
1	226	89.4158897742466	0.927886962890625	0.9283447265625	1.82769775390625E-06	1.69673353411781E-06	507931.21875	7.76782835600898E-05
1	227	89.5165977739923	0.917816162109375	0.91796875	1.7431640625E-06	1.60017009420699E-06	526610.625	7.78580870246515E-05
1	228	89.6173057737381	0.907745361328125	0.90789794921875	1.6070556640625E-06	1.45904255077767E-06	564944.9375	7.80267873778939E-05
1	229	89.7180137734838	0.897674560546875	0.89752197265625	1.40472412109375E-06	1.26077077311493E-06	638931.125	7.81784401624463E-05
1	230	89.8187217732295	0.887603759765625	0.8880615234375	1.12762451171875E-06	1.00139993719495E-06	787550.75	7.83059513196349E-05
1	231	89.9194297729753	0.877532958984375	0.87738037109375	7.69958496093751E-07	6.75546459660836E-07	1139516.5	7.8401506470982E-05
1	232	90.020137772721	0.867462158203125	0.86761474609375	3.39355468749999E-07	2.94429810310248E-07	2556654.75	7.84573639975861E-05
1	233	90.1208457724667	0.857391357421875	0.85723876953125	-1.483154296875E-07	-1.27141731809388E-07	-5779835.5	7.8466982813552E-05
1	234	90.2215537722125	0.847320556640625	0.84747314453125	-6.5887451171875E-07	-5.58378474124765E-07	-1286243.625	7.84263393143192E-05
1	235	90.3222617719582	0.837249755859375	0.83740234375	-1.158447265625E-06	-9.70086489360256E-07	-722866.1875	7.83348295954056E-05
1	236	90.4229697717039	0.827178955078125	0.8270263671875	-1.6046142578125E-06	-1.32705827127211E-06	-515405.09375	7.81956987339072E-05
1	237	90.5236777714497	0.817108154296875	0.8172607421875	-1.96197509765625E-06	-1.60344529831491E-06	-416550	7.80161062721163E-05
1	238	90.6243857711954	0.807037353515625	0.80780029296875	-2.20428466796875E-06	-1.78062168743054E-06	-366468.25	7.78063185862266E-05
1	239	90.7250937709412	0.796966552734375	0.79742431640625	-2.325439453125E-06	-1.8543620399214E-06	-342913.375	7.75782245909795E-05
1	240	90.8258017706869	0.786895751953125	0.787353515625	-2.34039306640625E-06	-1.84271664238622E-06	-336419.375	7.73432839196175E-05
1	241	90.9265097704326	0.776824951171875	0.77667236328125	-2.27630615234375E-06	-1.76794401340885E-06	-341198.5625	7.71108170738444E-05
1	242	91.0272177701784	0.766754150390625	0.76690673828125	-2.16705322265625E-06	-1.66192774031515E-06	-353893.8125	7.68870741012506E-05
1	243	91.1279257699241	0.756683349609375	0.7568359375	-2.042236328125E-06	-1.54563781507022E-06	-370591.78125	7.66751181799918E-05
1	244	91.2286337696698	0.746612548828125	0.74658203125	-1.92626953125E-06	-1.43811826092133E-06	-387579.21875	7.64752912800759E-05
1	245	91.3293417694156	0.736541748046875	0.736541748046875	-1.8353271484375E-06	-1.35179504923144E-06	-401313.625	7.62858762755059E-05
1	246	91.4300497691613	0.726470947265625	0.72637939453125	-1.78314208984375E-06	-1.29523766645434E-06	-407359.25	7.61036717449315E-05
1	247	91.5307577689071	0.716400146484375	0.71630859375	-1.77734375E-06	-1.27312659969903E-06	-403021.96875	7.5924392149318E-05
1	248	91.6314657686528	0.706329345703125	0.706329345703125	-1.8206787109375E-06	-1.28599879190006E-06	-387948.375	7.57432135287672E-05
1	249	91.7321737683985	0.696258544921875	0.6961669921875	-1.9110107421875E-06	-1.33038258809393E-06	-364292.5625	7.55553119233809E-05
1	250	91.8328817681443	0.686187744140625	0.686126708984375	-2.0367431640625E-06	-1.39746384775208E-06	-336874.4375	7.53565254854038E-05
1	251	91.93358976789	0.676116943359375	0.676055908203125	-2.18017578125E-06	-1.47392063354346E-06	-310092.40625	7.51441839383915E-05
1	252	92.0342977676357	0.666046142578125	0.666015625	-2.31781005859375E-06	-1.54369763549767E-06	-287346.9375	7.49176906538196E-05
1	253	92.1350057673815	0.655975341796875	0.655975341796875	-2.42767333984375E-06	-1.59249384523719E-06	-270207.4375	7.46787409298122E-05
1	254	92.2357137671272	0.645904541015625	0.645904541015625	-2.48870849609375E-06	-1.60746799338085E-06	-259534.046875	7.44311764719896E-05
1	255	92.3364217668729	0.635833740234375	0.635772705078125	-2.49725341796875E-06	-1.58768546043575E-06	-254588.796875	7.41801195545122E-05
1	256	92.4371297666187	0.625762939453125	0.625762939453125	-2.45574951171875E-06	-1.53671692260104E-06	-254815.46875	7.39307142794132E-05
1	257	92.5378377663644	0.615692138671875	0.615692138671875	-2.3760986328125E-06	-1.46294519254297E-06	-259118.9375	7.36874135327525E-05
1	258	92.6385457661102	0.605621337890625	0.6055908203125	-2.27142333984375E-06	-1.37555309720483E-06	-266612.9375	7.34533896320499E-05
1	259	92.7392537658559	0.595550537109375	0.5955810546875	-2.154541015625E-06	-1.28320368730783E-06	-276430.625	7.32305270503275E-05
1	260	92.8399617656016	0.585479736328125	0.58544921875	-2.0343017578125E-06	-1.19098035611387E-06	-287788.78125	7.30195970390923E-05
1	261	92.9406697653474	0.575408935546875	0.575439453125	-1.9158935546875E-06	-1.10248072360264E-06	-300350.4375	7.28206941857934E-05
1	262	93.0413777650931	0.565338134765625	0.56536865234375	-1.80389404296875E-06	-1.01986506706453E-06	-313415.6875	7.26333819329739E-05
1	263	93.1420857648388	0.555267333984375	0.55523681640625	-1.69952392578125E-06	-9.43638212902442E-07	-326701.40625	7.2456976340618E-05
1	264	93.2427937645846	0.545196533203125	0.545135498046875	-1.60430908203125E-06	-8.74565841968433E-07	-339794.5625	7.22906115697697E-05
1	265	93.3435017643303	0.535125732421875	0.53509521484375	-1.51580810546875E-06	-8.11101642739231E-07	-353009.875	7.21335018170066E-05
1	266	93.444209764076	0.525054931640625	0.52508544921875	-1.43585205078125E-06	-7.539450166405E-07	-365696.0625	7.19848758308217E-05
1	267	93.5449177638218	0.514984130859375	0.514984130859375	-1.3623046875E-06	-7.01565227245737E-07	-378024.21875	7.1843976911623E-05
1	268	93.6456257635675	0.504913330078125	0.504913330078125	-1.2957763671875E-06	-6.54254733944981E-07	-389660.875	7.17101283953525E-05
1	269	93.7463337633133	0.494842529296875	0.494873046875	-1.234130859375E-06	-6.10738084105833E-07	-400989.125	7.15827409294434E-05
1	270	93.847041763059	0.484771728515625	0.4847412109375	-1.177978515625E-06	-5.71014709294104E-07	-411502.625	7.14612833689898E-05
1	271	93.9477497628047	0.474700927734375	0.47467041015625	-1.12640380859375E-06	-5.34670505203394E-07	-421403.4375	7.13452463969588E-05
1	272	94.0484577625505	0.464630126953125	0.464630126953125	-1.07818603515625E-06	-5.00957696658588E-07	-430936.90625	7.12342371116392E-05
1	273	94.1491657622962	0.454559326171875	0.45458984375	-1.033935546875E-06	-4.70016573217436E-07	-439669.4375	7.11278844391927E-05
1	274	94.2498737620419	0.444488525390625	0.44451904296875	-9.9365234375E-07	-4.41697352471238E-07	-447358.75	7.10257809259929E-05
1	275	94.3505817617877	0.434417724609375	0.4344482421875	-9.5550537109375E-07	-4.15117625607309E-07	-454679.03125	7.09276355337352E-05
1	276	94.4512897615334	0.424346923828125	0.424346923828125	-9.2041015625E-07	-3.905732057774E-07	-461041.125	7.08331790519878E-05
1	277	94.5519977612792	0.414276123046875	0.41436767578125	-8.8775634765625E-07	-3.67857523997372E-07	-466758.375	7.07421277184039E-05
1	278	94.6527057610249	0.404205322265625	0.404205322265625	-8.575439453125E-07	-3.46623806990465E-07	-471352.34375	7.06542487023398E-05
1	279	94.7534137607706	0.394134521484375	0.394134521484375	-8.29162597656249E-07	-3.26801597338999E-07	-475340.46875	7.05693164491095E-05
1	280	94.8541217605164	0.384063720703125	0.38409423828125	-8.0291748046875E-07	-3.08395954107255E-07	-478373.28125	7.04871345078573E-05
1	281	94.9548297602621	0.373992919921875	0.37396240234375	-7.7789306640625E-07	-2.90902761435063E-07	-480737.5625	7.04075282556005E-05
1	282	95.0555377600078	0.363922119140625	0.363983154296875	-7.5408935546875E-07	-2.74475809192154E-07	-482679.09375	7.03303885529749E-05
1	283	95.1562457597536	0.353851318359375	0.3538818359375	-7.3150634765625E-07	-2.58866805324942E-07	-483771.40625	7.02555844327435E-05
1	284	95.2569537594993	0.343780517578125	0.34381103515625	-7.098388671875E-07	-2.44050426090325E-07	-484350.84375	7.0183006755542E-05
1	285	95.357661759245	0.333709716796875	0.333770751953125	-6.89697265625E-07	-2.3020076866942E-07	-483938.0625	7.0112531830091E-05
1	286	95.4583697589908	0.323638916015625	0.323638916015625	-6.695556640625E-07	-2.16694274968177E-07	-483363.71875	7.00440868968144E-05
1	287	95.5590777587365	0.313568115234375	0.3135986328125	-6.5155029296875E-07	-2.04325274921757E-07	-481311.46875	6.99775700923055E-05
1	288	95.6597857584823	0.303497314453125	0.30352783203125	-6.33850097656249E-07	-1.92391155451332E-07	-478863.75	6.99128431733698E-05
1	289	95.760493758228	0.293426513671875	0.29345703125	-6.17370605468751E-07	-1.81171742497099E-07	-475333.6875	6.98498406563886E-05
1	290	95.8612017579737	0.283355712890625	0.283294677734375	-6.01806640625E-07	-1.70488618778109E-07	-470740.375	6.97884461260401E-05
1	291	95.9619097577195	0.273284912109375	0.273284912109375	-5.87158203125E-07	-1.60461468112771E-07	-465436.59375	6.97285795467906E-05
1	292	96.0626177574652	0.263214111328125	0.26324462890625	-5.7342529296875E-07	-1.50951123600862E-07	-459074	6.96701390552334E-05
1	293	96.1633257572109	0.253143310546875	0.253143310546875	-5.60607910156249E-07	-1.41914128448661E-07	-451551.46875	6.96130373398773E-05
1	294	96.2640337569567	0.243072509765625	0.243133544921875	-5.4931640625E-07	-1.33557236381421E-07	-442611.125	6.95571434334852E-05
1	295	96.3647417567024	0.233001708984375	0.233001708984375	-5.389404296875E-07	-1.25574032949771E-07	-432332.96875	6.95023481966928E-05
1	296	96.4654497564482	0.222930908203125	0.222930908203125	-5.291748046875E-07	-1.17969413793162E-07	-421280.3125	6.94485643180087E-05
1	297	96.5661577561939	0.212860107421875	0.21295166015625	-5.2154541015625E-07	-1.11063961583113E-07	-408308.9375	6.93956535542384E-05
1	298	96.6668657559396	0.202789306640625	0.20281982421875	-5.145263671875E-07	-1.04356139729589E-07	-394187.4375	6.93434849381447E-05
1	299	96.7675737556854	0.192718505859375	0.192718505859375	-5.08728027343749E-07	-9.80413048523587E-08	-378824.25	6.92919638822787E-05
1	300	96.8682817554311	0.182647705078125	0.18267822265625	-5.0567626953125E-07	-9.23760410387331E-08	-361255.28125	6.92408793838695E-05
1	301	96.9689897551768	0.172576904296875	0.172607421875	-5.035400390625E-07	-8.69147456228347E-08	-342787.875	6.9190064095892E-05
1	302	97.0696977549226	0.162506103515625	0.162567138671875	-5.04150390624999E-07	-8.19582837152666E-08	-322457.65625	6.91393215674907E-05
1	303	97.1704057546683	0.152435302734375	0.152496337890625	-5.0811767578125E-07	-7.7486077998401E-08	-300120.15625	6.90883534844033E-05
1	304	97.271113754414	0.142364501953125	0.14239501953125	-5.157470703125E-07	-7.34398142299142E-08	-276094.6875	6.90367960487492E-05
1	305	97.3718217541598	0.132293701171875	0.132354736328125	-5.279541015625E-07	-6.9877231112514E-08	-250693.640625	6.8984241806902E-05
1	306	97.4725297539055	0.122222900390625	0.12225341796875	-5.47180175781251E-07	-6.68946427140327E-08	-223424.4375	6.89301014062949E-05
1	307	97.5732377536513	0.112152099609375	0.112213134765625	-5.74340820312499E-07	-6.44485780298965E-08	-195377.265625	6.88736326992512E-05
1	308	97.673945753397	0.102081298828125	0.1021728515625	-6.121826171875E-07	-6.25484375404994E-08	-166899.3125	6.88138825353235E-05
1	309	97.7746537531427	0.092010498046875	0.09210205078125	-6.64672851562501E-07	-6.12177331049679E-08	-138567.5	6.87495921738446E-05
1	310	97.8753617528885	0.081939697265625	0.082000732421875	-7.3455810546875E-07	-6.02343064315392E-08	-111632.734375	6.86791318003088E-05
1	311	97.9760697526342	0.071868896484375	0.071929931640625	-8.2977294921875E-07	-5.96855116441475E-08	-86686.28125	6.86003622831777E-05
1	312	98.0767777523799	0.061798095703125	0.0618896484375	-9.5245361328125E-07	-5.89470197098763E-08	-64979.17578125	6.85106206219643E-05
1	313	98.1774857521257	0.051727294921875	0.051788330078125	-1.10931396484375E-06	-5.74495189198387E-08	-46685.0078125	6.84067999827676E-05
1	314	98.2781937518714	0.041656494140625	0.041717529296875	-1.2982177734375E-06	-5.41584377344861E-08	-32134.462890625	6.82855752529576E-05
1	315	98.3789017516171	0.031585693359375	0.0316650390625	-1.51458740234375E-06	-4.7959463955749E-08	-20906.7109375	6.81439341860823E-05
1	316	98.4796097513629	0.021514892578125	0.0216278076171875	-1.74224853515625E-06	-3.76810156410556E-08	-12413.7333984375	6.79799413774163E-05
1	317	98.5803177511086	0.011444091796875	0.0115447998046875	-1.96258544921875E-06	-2.2657655307512E-08	-5882.4443359375	6.77933858241886E-05
1	318	98.6810257508544	0.001373291015625	0.00148925781250001	-2.152099609375E-06	-3.20503112938297E-09	-692.002258300781	6.75861956551671E-05
1	319	98.7817337506001	-0.008697509765625	-0.008575439453125	-2.29156494140625E-06	1.96511766858976E-08	3742.17602539063	6.73624454066157E-05
1	320	98.8824417503458	-0.018768310546875	-0.0186492919921875	-2.3724365234375E-06	4.42442598114212E-08	7860.81787109375	6.71275920467451E-05
1	321	98.9831497500916	-0.028839111328125	-0.028717041015625	-2.3992919921875E-06	6.89005688059297E-08	11968.96484375	6.68873180984519E-05
1	322	99.0838577498373	-0.038909912109375	-0.038763427734375	-2.38128662109375E-06	9.23068270708427E-08	16278.3544921875	6.66465930407867E-05
1	323	99.184565749583	-0.048980712890625	-0.048809814453125	-2.33367919921875E-06	1.13906445164957E-07	20915.392578125	6.64091785438359E-05
1	324	99.2852737493288	-0.059051513671875	-0.0589599609375	-2.26898193359375E-06	1.3377908203438E-07	25985.205078125	6.61774174659513E-05
1	325	99.3859817490745	-0.069122314453125	-0.06903076171875	-2.19757080078125E-06	1.51699978800934E-07	31412.306640625	6.59525030641817E-05
1	326	99.4866897488203	-0.079193115234375	-0.0791015625	-2.12738037109375E-06	1.68279115086989E-07	37182.61328125	6.57347263768315E-05
1	327	99.587397748566	-0.089263916015625	-0.089202880859375	-2.05902099609375E-06	1.8367060761193E-07	43322.95703125	6.55239273328334E-05
1	328	99.6881057483117	-0.099334716796875	-0.0992431640625	-1.99798583984375E-06	1.98286414843096E-07	49671.609375	6.53196402709E-05
1	329	99.7888137480575	-0.109405517578125	-0.109283447265625	-1.943359375E-06	2.12377017305698E-07	56234.296875	6.51211739750579E-05
1	330	99.8895217478032	-0.119476318359375	-0.119384765625	-1.89453125E-06	2.26178173079461E-07	63015.46484375	6.49279245408252E-05
1	331	99.9902297475489	-0.129547119140625	-0.12945556640625	-1.85302734375E-06	2.3988468456082E-07	69861.6640625	6.47392153041437E-05
1	332	100.090937747295	-0.139617919921875	-0.13946533203125	-1.81671142578125E-06	2.53368256153408E-07	76768.015625	6.45544350845739E-05
1	333	100.19164574704	-0.149688720703125	-0.149505615234375	-1.7864990234375E-06	2.6709162170846E-07	83686.375	6.4372994529549E-05
1	334	100.292353746786	-0.159759521484375	-0.159637451171875	-1.76116943359375E-06	2.81148601288805E-07	90642.8671875	6.41943552182056E-05
1	335	100.393061746532	-0.169830322265625	-0.169708251953125	-1.74041748046875E-06	2.95363207669652E-07	97510.0859375	6.40180369373411E-05
1	336	100.493769746278	-0.179901123046875	-0.17974853515625	-1.72393798828125E-06	3.09875332504816E-07	104266.2421875	6.3843595853541E-05
1	337	100.594477746023	-0.189971923828125	-0.18975830078125	-1.71173095703125E-06	3.24815147223489E-07	110857.5546875	6.36705954093486E-05
1	338	100.695185745769	-0.200042724609375	-0.199920654296875	-1.70379638671875E-06	3.40624069394835E-07	117338.3515625	6.34986063232645E-05
1	339	100.795893745515	-0.189971923828125	-0.189849853515625	-1.4892578125E-06	2.82735385326305E-07	127479.5078125	6.33378222119063E-05
2	340	100.896601745261	-0.179901123046875	-0.17974853515625	-1.3360595703125E-06	2.40154747643828E-07	134536.328125	6.31955626886338E-05
2	341	100.997309745006	-0.169830322265625	-0.169647216796875	-1.2127685546875E-06	2.05742807679599E-07	139884.25	6.30672147963196E-05
2	342	101.098017744752	-0.159759521484375	-0.15966796875	-1.1083984375E-06	1.76975731847051E-07	144052.859375	6.29503338132054E-05
2	343	101.198725744498	-0.149688720703125	-0.149566650390625	-1.0174560546875E-06	1.52177491941075E-07	147000.609375	6.28432899247855E-05
2	344	101.299433744244	-0.139617919921875	-0.1395263671875	-9.35974121093749E-07	1.3059306525065E-07	149070.765625	6.27449262537993E-05
2	345	101.400141743989	-0.129547119140625	-0.12945556640625	-8.6181640625E-07	1.11566926364048E-07	150212.46875	6.26543987891637E-05
2	346	101.500849743735	-0.119476318359375	-0.119415283203125	-7.9345703125E-07	9.47508880244641E-08	150500	6.25710526946932E-05
2	347	101.601557743481	-0.109405517578125	-0.109405517578125	-7.2784423828125E-07	7.96301762306939E-08	150314.46875	6.24944514129311E-05
2	348	101.702265743226	-0.099334716796875	-0.099334716796875	-6.640625E-07	6.59644570077944E-08	149586.390625	6.24243621132337E-05
2	349	101.802973742972	-0.089263916015625	-0.08917236328125	-5.9844970703125E-07	5.33651700607152E-08	149005.625	6.23607847956009E-05
2	350	101.903681742718	-0.079193115234375	-0.07916259765625	-5.2825927734375E-07	4.18183745409806E-08	149855.578125	6.23040541540831E-05
2	351	102.004389742464	-0.069122314453125	-0.069061279296875	-4.5013427734375E-07	3.10868486508298E-08	153423.734375	6.22547886450775E-05
2	352	102.105097742209	-0.059051513671875	-0.058929443359375	-3.59191894531249E-07	2.11669775040946E-08	164061.171875	6.22140360064805E-05
2	353	102.205805741955	-0.048980712890625	-0.0488372802734375	-2.49328613281249E-07	1.2176530894692E-08	195875.171875	6.21833896730095E-05
2	354	102.306513741701	-0.038909912109375	-0.038787841796875	-1.15356445312501E-07	4.47442749518245E-09	336243.40625	6.21650324319489E-05
2	355	102.407221741447	-0.028839111328125	-0.028704833984375	5.035400390625E-08	-1.44540324154008E-09	-570060.625	6.21617582510225E-05
2	356	102.507929741192	-0.018768310546875	-0.018609619140625	2.48107910156251E-07	-4.61719373845426E-09	-75006.1484375	6.21767831034958E-05
2	357	102.608637740938	-0.008697509765625	-0.00859985351562501	4.78210449218749E-07	-4.11253964216485E-09	-17983.408203125	6.22133593424223E-05
2	358	102.709345740684	0.001373291015625	0.00147399902343751	7.28759765625001E-07	1.07419118045016E-09	2022.61303710938	6.22741354163736E-05
2	359	102.81005374043	0.011444091796875	0.011529541015625	9.832763671875E-07	1.13367244480855E-08	11725.63671875	6.23603409621865E-05
2	360	102.910761740175	0.021514892578125	0.0216156005859375	1.2200927734375E-06	2.63730370875237E-08	17716.359375	6.24712920398451E-05
2	361	103.011469739921	0.031585693359375	0.031695556640625	1.41571044921875E-06	4.48717258905162E-08	22388.447265625	6.26040127826855E-05
2	362	103.112177739667	0.041656494140625	0.041778564453125	1.55609130859375E-06	6.50112639277722E-08	26848.40234375	6.27536574029364E-05
2	363	103.212885739413	0.051727294921875	0.051788330078125	1.6363525390625E-06	8.47439665108141E-08	31648.638671875	6.29144051345065E-05
2	364	103.313593739158	0.061798095703125	0.061859130859375	1.6632080078125E-06	1.02884598618402E-07	37192.66015625	6.30805516266264E-05
2	365	103.414301738904	0.071868896484375	0.0718994140625	1.64886474609375E-06	1.18552407002426E-07	43605.40625	6.32473311270587E-05
2	366	103.51500973865	0.081939697265625	0.08203125	1.60858154296875E-06	1.31953953541597E-07	50996.015625	6.34113530395553E-05
2	367	103.615717738395	0.092010498046875	0.09210205078125	1.55426025390625E-06	1.43150543863158E-07	59257.80859375	6.35706164757721E-05
2	368	103.716425738141	0.102081298828125	0.10205078125	1.49444580078125E-06	1.52509358031239E-07	68286.7109375	6.37241319054738E-05
2	369	103.817133737887	0.112152099609375	0.112213134765625	1.4349365234375E-06	1.61018718358719E-07	78200.765625	6.38716373941861E-05
2	370	103.917841737633	0.122222900390625	0.122283935546875	1.37847900390625E-06	1.68565833291723E-07	88709.328125	6.40133075648919E-05
2	371	104.018549737378	0.132293701171875	0.13238525390625	1.32720947265625E-06	1.75702965066193E-07	99747.0703125	6.41495498712175E-05
2	372	104.119257737124	0.142364501953125	0.14239501953125	1.28143310546875E-06	1.82469690912512E-07	111121.6953125	6.42809027340263E-05
2	373	104.21996573687	0.152435302734375	0.152496337890625	1.240234375E-06	1.8913119959052E-07	122957.6796875	6.44078754703514E-05
2	374	104.320673736616	0.162506103515625	0.162567138671875	1.204833984375E-06	1.95866419971935E-07	134929.078125	6.45309992250986E-05
2	375	104.421381736361	0.172576904296875	0.172576904296875	1.17340087890625E-06	2.0250188015325E-07	147074.125	6.46507542114705E-05
2	376	104.522089736107	0.182647705078125	0.182647705078125	1.14593505859375E-06	2.09302399412081E-07	159387.484375	6.47675406071357E-05
2	377	104.622797735853	0.192718505859375	0.192718505859375	1.1224365234375E-06	2.16314290923947E-07	171696.578125	6.48817585897632E-05
2	378	104.723505735599	0.202789306640625	0.202789306640625	1.10137939453125E-06	2.23347953465236E-07	184123.03125	6.49937355774455E-05
2	379	104.824213735344	0.212860107421875	0.21295166015625	1.082763671875E-06	2.30576318926978E-07	196674.1875	6.51037189527415E-05
2	380	104.92492173509	0.222930908203125	0.22296142578125	1.06597900390625E-06	2.37672182379356E-07	209161.1875	6.5211919718422E-05
2	381	105.025629734836	0.233001708984375	0.233001708984375	1.05133056640625E-06	2.44961796624921E-07	221625.5625	6.53185343253426E-05
2	382	105.126337734582	0.243072509765625	0.2430419921875	1.03851318359375E-06	2.52402287514997E-07	234028.8125	6.54237665003166E-05
2	383	105.227045734327	0.253143310546875	0.253173828125	1.0272216796875E-06	2.60065633028717E-07	246464.65625	6.55277835903689E-05
2	384	105.327753734073	0.263214111328125	0.26324462890625	1.01715087890625E-06	2.67759503458365E-07	258805.875	6.56307238386944E-05
2	385	105.428461733819	0.273284912109375	0.2733154296875	1.00799560546875E-06	2.75500752877633E-07	271147.4375	6.57326963846572E-05
2	386	105.529169733564	0.283355712890625	0.28338623046875	9.99755859375E-07	2.83317035609798E-07	283455.4375	6.58337958157063E-05
2	387	105.62987773331	0.293426513671875	0.293426513671875	9.92736816406251E-07	2.91295293664007E-07	295573.34375	6.59341239952482E-05
2	388	105.730585733056	0.303497314453125	0.30352783203125	9.8602294921875E-07	2.99285375149339E-07	307830.40625	6.60337682347745E-05
2	389	105.831293732802	0.313568115234375	0.3135986328125	9.808349609375E-07	3.07588493342337E-07	319726.21875	6.61328012938611E-05
2	390	105.932001732547	0.323638916015625	0.32366943359375	9.7625732421875E-07	3.15984635790301E-07	331541.125	6.62313541397452E-05
2	391	106.032709732293	0.333709716796875	0.333770751953125	9.7198486328125E-07	3.24420113884116E-07	343390.90625	6.63294558762573E-05
2	392	106.133417732039	0.343780517578125	0.343841552734375	9.68017578125E-07	3.32844649619801E-07	355201.78125	6.64271428831853E-05
2	393	106.234125731785	0.353851318359375	0.353912353515625	9.6588134765625E-07	3.41837335327E-07	366413.90625	6.65245170239359E-05
2	394	106.33483373153	0.363922119140625	0.36395263671875	9.6435546875E-07	3.50979689756059E-07	377405.09375	6.66217165417038E-05
2	395	106.435541731276	0.373992919921875	0.373992919921875	9.63134765625E-07	3.60205575589134E-07	388308	6.67187705403194E-05
2	396	106.536249731022	0.384063720703125	0.384033203125	9.625244140625E-07	3.69641327324643E-07	398985.4375	6.68157372274436E-05
2	397	106.636957730768	0.394134521484375	0.394134521484375	9.625244140625E-07	3.79364081481981E-07	409480.03125	6.69126675347798E-05
2	398	106.737665730513	0.404205322265625	0.404144287109375	9.6282958984375E-07	3.89122050137303E-07	419746.46875	6.70096196699888E-05
2	399	106.838373730259	0.414276123046875	0.41424560546875	9.63745117187501E-07	3.99227133129898E-07	429829.03125	6.71066300128587E-05
2	400	106.939081730005	0.424346923828125	0.42431640625	9.6435546875E-07	4.09191841299616E-07	440000.03125	6.72037203912623E-05
2	401	107.039789729751	0.434417724609375	0.4344482421875	9.6588134765625E-07	4.19625450831518E-07	449794.625	6.73009126330726E-05
2	402	107.140497729496	0.444488525390625	0.4444580078125	9.674072265625E-07	4.29971890980596E-07	459432.1875	6.73982649459504E-05
2	403	107.241205729242	0.454559326171875	0.45452880859375	9.686279296875E-07	4.40269275259197E-07	469250.1875	6.74957482260652E-05
2	404	107.341913728988	0.464630126953125	0.464691162109375	9.71069335937499E-07	4.51247331056948E-07	478535.53125	6.7593420681078E-05
2	405	107.442621728733	0.474700927734375	0.474700927734375	9.735107421875E-07	4.6212645088417E-07	487617.5625	6.76913405186497E-05
2	406	107.543329728479	0.484771728515625	0.4847412109375	9.771728515625E-07	4.73675925150019E-07	496064.96875	6.77895659464411E-05
2	407	107.644037728225	0.494842529296875	0.494842529296875	9.808349609375E-07	4.85358839341643E-07	504511.53125	6.78881551721133E-05
2	408	107.744745727971	0.504913330078125	0.5048828125	9.857177734375E-07	4.97671976518177E-07	512198.15625	6.79871809552424E-05
2	409	107.845453727716	0.514984130859375	0.514984130859375	9.9151611328125E-07	5.10615052462526E-07	519390.59375	6.80867451592349E-05
2	410	107.946161727462	0.525054931640625	0.5250244140625	9.9853515625E-07	5.24255312939204E-07	525794.625	6.81869496474974E-05
2	411	108.046869727208	0.535125732421875	0.535064697265625	1.00738525390625E-06	5.39016241418722E-07	531142.125	6.82879544910975E-05
2	412	108.147577726954	0.545196533203125	0.545166015625	1.019287109375E-06	5.55680685465632E-07	534850.3125	6.8390007072594E-05
2	413	108.248285726699	0.555267333984375	0.55523681640625	1.03424072265625E-06	5.74248474549677E-07	536854.5625	6.84934057062492E-05
2	414	108.348993726445	0.565338134765625	0.5653076171875	1.0546875E-06	5.96222832882631E-07	535995.375	6.85985942254774E-05
2	415	108.449701726191	0.575408935546875	0.575347900390625	1.0833740234375E-06	6.23316907422122E-07	531070.4375	6.87062565702945E-05
2	416	108.550409725937	0.585479736328125	0.585418701171875	1.121826171875E-06	6.56737995541334E-07	521844.40625	6.88172949594446E-05
2	417	108.651117725682	0.595550537109375	0.595489501953125	1.1773681640625E-06	7.01110366208013E-07	505780.1875	6.89330699970014E-05
2	418	108.751825725428	0.605621337890625	0.605560302734375	1.25457763671875E-06	7.59722354359837E-07	482680.625	6.90555243636481E-05
2	419	108.852533725174	0.615692138671875	0.615692138671875	1.361083984375E-06	8.3800870243067E-07	452354.28125	6.91872337483801E-05
2	420	108.95324172492	0.625762939453125	0.625732421875	1.5032958984375E-06	9.4066092515277E-07	416240.375	6.93314723321237E-05
2	421	109.053949724665	0.635833740234375	0.63580322265625	1.6845703125E-06	1.07105518054595E-06	377427.53125	6.94919945090078E-05
2	422	109.154657724411	0.645904541015625	0.645904541015625	1.905517578125E-06	1.23078234537388E-06	338965.4375	6.96727656759322E-05
2	423	109.255365724157	0.655975341796875	0.65594482421875	2.1575927734375E-06	1.41526174957107E-06	304017	6.98773583280854E-05
2	424	109.356073723902	0.666046142578125	0.665985107421875	2.4273681640625E-06	1.6165910210475E-06	274365.09375	7.0108231739141E-05
2	425	109.456781723648	0.676116943359375	0.675994873046875	2.69073486328125E-06	1.81892301043263E-06	251230.578125	7.03659461578354E-05
2	426	109.557489723394	0.686187744140625	0.68603515625	2.92572021484375E-06	2.00714680431702E-06	234484.203125	7.06487626302987E-05
2	427	109.65819772314	0.696258544921875	0.6961669921875	3.111572265625E-06	2.16617377191142E-06	223734.8125	7.09527594153769E-05
2	428	109.758905722885	0.706329345703125	0.70623779296875	3.24066162109375E-06	2.28867770601937E-06	217930.140625	7.12726250640117E-05
2	429	109.859613722631	0.716400146484375	0.71630859375	3.31329345703125E-06	2.37334052144433E-06	216192.328125	7.16026406735182E-05
2	430	109.960321722377	0.726470947265625	0.7264404296875	3.34381103515625E-06	2.42907935898984E-06	217249.25	7.19378513167612E-05
2	431	110.061029722123	0.736541748046875	0.736480712890625	3.35235595703125E-06	2.46894546762633E-06	219690.5	7.22750264685601E-05
2	432	110.161737721868	0.746612548828125	0.74652099609375	3.3599853515625E-06	2.50829953074572E-06	222179.84375	7.26130238035694E-05
2	433	110.262445721614	0.756683349609375	0.7568359375	3.38531494140625E-06	2.56212797467015E-06	223564.421875	7.29526727809571E-05
2	434	110.36315372136	0.766754150390625	0.76751708984375	3.44818115234375E-06	2.64653795056802E-06	222586.078125	7.3296767368447E-05
2	435	110.463861721106	0.776824951171875	0.77728271484375	3.568115234375E-06	2.77343406196451E-06	217841.265625	7.36500660423189E-05
2	436	110.564569720851	0.786895751953125	0.787353515625	3.75946044921875E-06	2.96002417599084E-06	209432.59375	7.40190444048494E-05
2	437	110.665277720597	0.796966552734375	0.797119140625	4.034423828125E-06	3.21591642205021E-06	197579.421875	7.44114950066432E-05
2	438	110.765985720343	0.807037353515625	0.8074951171875	4.39666748046875E-06	3.55028760168352E-06	183660.71875	7.48360325815156E-05
2	439	110.866693720089	0.817108154296875	0.81756591796875	4.837646484375E-06	3.95509505324299E-06	169000.765625	7.53010172047652E-05
2	440	110.967401719834	0.827178955078125	0.82733154296875	5.340576171875E-06	4.41842712461948E-06	154914.28125	7.58135356591083E-05
2	441	111.06810971958	0.837249755859375	0.83770751953125	5.865478515625E-06	4.91355513076996E-06	142819.984375	7.63778007240035E-05
2	442	111.168817719326	0.847320556640625	0.84716796875	6.38427734375E-06	5.40855535291485E-06	132695.984375	7.69946273067035E-05
2	443	111.269525719071	0.857391357421875	0.85723876953125	6.842041015625E-06	5.86526266488363E-06	125289.921875	7.76606248109601E-05
2	444	111.370233718817	0.867462158203125	0.86700439453125	7.2052001953125E-06	6.2469398471876E-06	120330.375	7.8367957030423E-05
2	445	111.470941718563	0.877532958984375	0.877685546875	7.4432373046875E-06	6.53282177154324E-06	117917.1796875	7.91055645095184E-05
2	446	111.571649718309	0.887603759765625	0.88775634765625	7.5408935546875E-06	6.69447581458371E-06	117725.6171875	7.98600740381517E-05
2	447	111.672357718054	0.897674560546875	0.8978271484375	7.5164794921875E-06	6.74849934512167E-06	119447.828125	8.06182797532529E-05
2	448	111.7730657178	0.907745361328125	0.90789794921875	7.4005126953125E-06	6.71891029924154E-06	122680.4140625	8.13694059615955E-05
2	449	111.873773717546	0.917816162109375	0.91827392578125	7.2265625E-06	6.6359639276925E-06	127069.2578125	8.2105936598964E-05
2	450	111.974481717292	0.927886962890625	0.92803955078125	7.0404052734375E-06	6.53377446724335E-06	131816.203125	8.28243355499581E-05
2	451	112.075189717037	0.937957763671875	0.93841552734375	6.8634033203125E-06	6.44072406430496E-06	136727.4375	8.35244500194676E-05
2	452	112.175897716783	0.948028564453125	0.94757080078125	6.7108154296875E-06	6.35897276879405E-06	141200.546875	8.42079680296592E-05
2	453	112.276605716529	0.958099365234375	0.95794677734375	6.597900390625E-06	6.32043702353258E-06	145189.640625	8.4878112829756E-05
2	454	112.377313716275	0.968170166015625	0.96832275390625	6.536865234375E-06	6.32979526926647E-06	148132.59375	8.55394973768853E-05
2	455	112.47802171602	0.978240966796875	0.97808837890625	6.5216064453125E-06	6.37870743958047E-06	149976.609375	8.61970474943519E-05
2	456	112.578729715766	0.988311767578125	0.9881591796875	6.5582275390625E-06	6.48057266516844E-06	150674.734375	8.68556671775877E-05
2	457	112.679437715512	0.998382568359375	0.99853515625	6.6253662109375E-06	6.61566082271747E-06	150713.953125	8.75195182743482E-05
2	458	112.780145715258	1.00845336914063	1.0089111328125	6.7108154296875E-06	6.77061643727939E-06	150341.0625	8.81910455063917E-05
2	459	112.880853715003	1.01852416992188	1.01837158203125	6.787109375E-06	6.911799118825E-06	150044.96875	8.8870721810963E-05
2	460	112.981561714749	1.02859497070313	1.02874755859375	6.8328857421875E-06	7.02931401974638E-06	150558.296875	8.95565390237607E-05
2	461	113.082269714495	1.03866577148438	1.03851318359375	6.8359375E-06	7.09921096131438E-06	151919.640625	9.02448227861896E-05
2	462	113.18297771424	1.04873657226563	1.04888916015625	6.79931640625E-06	7.13172948962892E-06	154263.90625	9.09314112504944E-05
2	463	113.283685713986	1.05880737304688	1.05865478515625	6.719970703125E-06	7.11412894816021E-06	157538.609375	9.16121643967927E-05
2	464	113.384393713732	1.06887817382813	1.0687255859375	6.6192626953125E-06	7.07417530065868E-06	161456.90625	9.2283844423946E-05
2	465	113.485101713478	1.07894897460938	1.0791015625	6.500244140625E-06	7.01442377248895E-06	166009.390625	9.29444649955258E-05
2	466	113.585809713223	1.08901977539063	1.08917236328125	6.378173828125E-06	6.94693017067038E-06	170765.5625	9.35929419938475E-05
2	467	113.686517712969	1.09909057617188	1.09954833984375	6.2591552734375E-06	6.88224372424884E-06	175670.40625	9.42292826948687E-05
2	468	113.787225712715	1.10916137695313	1.10931396484375	6.146240234375E-06	6.81810979585862E-06	180486.59375	9.48539454839192E-05
2	469	113.887933712461	1.11923217773438	1.11907958984375	6.0394287109375E-06	6.75860110277426E-06	185295.609375	9.54675415414385E-05
2	470	113.988641712206	1.12930297851563	1.129150390625	5.94482421875E-06	6.71260022500064E-06	189938.40625	9.60709949140437E-05
2	471	114.089349711952	1.13937377929688	1.13983154296875	5.8563232421875E-06	6.67522181174718E-06	194632.625	9.66652296483517E-05
2	472	114.190057711698	1.14944458007813	1.1492919921875	5.7769775390625E-06	6.63943410472712E-06	198943.46875	9.72510169958696E-05
2	473	114.290765711444	1.15951538085938	1.15936279296875	5.7037353515625E-06	6.61269814372645E-06	203263.78125	9.78291136561893E-05
2	474	114.391473711189	1.16958618164063	1.16973876953125	5.6396484375E-06	6.59691522741923E-06	207413.421875	9.84002981567755E-05
2	475	114.492181710935	1.17965698242188	1.1798095703125	5.5816650390625E-06	6.58530188957229E-06	211372.34375	9.89653417491354E-05
2	476	114.592889710681	1.18972778320313	1.18988037109375	5.5328369140625E-06	6.58341423331876E-06	215057.921875	9.95250011328608E-05
2	477	114.693597710427	1.19979858398438	1.19964599609375	5.487060546875E-06	6.58252974972129E-06	218631.828125	0.000100079894764349
2	478	114.794305710172	1.20986938476563	1.2103271484375	5.4473876953125E-06	6.59312127027079E-06	222184.875	0.000100630488304887
2	479	114.895013709918	1.21994018554688	1.220703125	5.4107666015625E-06	6.60493924442562E-06	225606.328125	0.000101177240139805
2	480	114.995721709664	1.23001098632813	1.23046875	5.3802490234375E-06	6.62022785036243E-06	228701.09375	0.000101720608654432
2	481	115.096429709409	1.24008178710938	1.23992919921875	5.352783203125E-06	6.63707169223926E-06	231641.96875	0.000102261059510056
2	482	115.197137709155	1.25015258789063	1.25030517578125	5.328369140625E-06	6.66208734401152E-06	234650.640625	0.000102798898296896
2	483	115.297845708901	1.26022338867188	1.26007080078125	5.303955078125E-06	6.68335860609659E-06	237571.9375	0.000103334277810063
2	484	115.398553708647	1.27029418945313	1.2701416015625	5.28564453125E-06	6.71351699566003E-06	240300.234375	0.000103867510915734
2	485	115.499261708392	1.28036499023438	1.28021240234375	5.267333984375E-06	6.74330613037455E-06	243047.5	0.000104398895928171
2	486	115.599969708138	1.29043579101563	1.2908935546875	5.2520751953125E-06	6.77986963637522E-06	245787.34375	0.000104928585642483
2	487	115.700677707884	1.30050659179688	1.30096435546875	5.2398681640625E-06	6.81688152326387E-06	248281.890625	0.000105456900200807
2	488	115.80138570763	1.31057739257813	1.31072998046875	5.230712890625E-06	6.85605209582718E-06	250583.4375	0.000105984130641446
2	489	115.902093707375	1.32064819335938	1.32080078125	5.2215576171875E-06	6.89663693265175E-06	252951.5	0.000106510444311425
2	490	116.002801707121	1.33071899414063	1.33056640625	5.2154541015625E-06	6.93950823915657E-06	255119.953125	0.000107035994005855
2	491	116.103509706867	1.34078979492188	1.34033203125	5.2093505859375E-06	6.98225949236075E-06	257293.5	0.000107560925243888
2	492	116.204217706613	1.35086059570313	1.3507080078125	5.206298828125E-06	7.03218938724604E-06	259437.28125	0.000108085390820634
2	493	116.304925706358	1.36093139648438	1.36077880859375	5.206298828125E-06	7.08462084730854E-06	261371.640625	0.000108609710878227
2	494	116.405633706104	1.37100219726563	1.37115478515625	5.206298828125E-06	7.1386416493624E-06	263364.59375	0.000109134023659863
2	495	116.50634170585	1.38107299804688	1.38092041015625	5.2093505859375E-06	7.19369836588157E-06	265084.9375	0.000109658496512566
2	496	116.607049705596	1.39114379882813	1.3916015625	5.2154541015625E-06	7.2578341132612E-06	266822.6875	0.000110183427750599
2	497	116.707757705341	1.40121459960938	1.40106201171875	5.224609375E-06	7.32000125935883E-06	268165.90625	0.000110709122964181
2	498	116.808465705087	1.41128540039063	1.4111328125	5.2398681640625E-06	7.39415008865763E-06	269306.9375	0.000111236055090558
2	499	116.909173704833	1.42135620117188	1.4215087890625	5.255126953125E-06	7.47020885683014E-06	270499.4375	0.000111764515168034
2	500	117.009881704578	1.43142700195313	1.4312744140625	5.2764892578125E-06	7.55210385250393E-06	271255.0625	0.000112294823338743
2	501	117.110589704324	1.44149780273438	1.441650390625	5.3070068359375E-06	7.65084860177012E-06	271650.375	0.000112827750854194
2	502	117.21129770407	1.45156860351563	1.45172119140625	5.340576171875E-06	7.7530276030302E-06	271828.5625	0.00011336389434291
2	503	117.312005703816	1.46163940429688	1.46148681640625	5.38330078125E-06	7.86762302595889E-06	271485.28125	0.000113903886813205
2	504	117.412713703561	1.47171020507813	1.47125244140625	5.438232421875E-06	8.00101224740501E-06	270538.71875	0.000114448790554889
2	505	117.513421703307	1.48178100585938	1.48193359375	5.499267578125E-06	8.14954910310917E-06	269478.375	0.000114999544166494
2	506	117.614129703053	1.49185180664063	1.49169921875	5.57861328125E-06	8.32161276775878E-06	267396.0625	0.000115557355456986
2	507	117.714837702799	1.50192260742188	1.50177001953125	5.6732177734375E-06	8.51986806083005E-06	264712.21875	0.000116123934276402
2	508	117.815545702544	1.49185180664063	1.4923095703125	5.43212890625E-06	8.10641722637229E-06	274719.125	0.00011668312799884
2	509	117.91625370229	1.48178100585938	1.48162841796875	5.2642822265625E-06	7.79971014708281E-06	281449.28125	0.000117221738037188
2	510	118.016961702036	1.47171020507813	1.47186279296875	5.1361083984375E-06	7.55964720156044E-06	286571.59375	0.000117745439638384
2	511	118.117669701782	1.46163940429688	1.461181640625	5.035400390625E-06	7.35763433112879E-06	290181.84375	0.000118257616122719
2	512	118.218377701527	1.45156860351563	1.45172119140625	4.95086669921875E-06	7.18727824278176E-06	293225.65625	0.000118760464829393
2	513	118.319085701273	1.44149780273438	1.44134521484375	4.88128662109375E-06	7.03561909176642E-06	295279.78125	0.000119255550089292
2	514	118.419793701019	1.43142700195313	1.4312744140625	4.82208251953125E-06	6.90172282702406E-06	296816.6875	0.000119744152470957
2	515	118.520501700764	1.42135620117188	1.4215087890625	4.7705078125E-06	6.78131846143515E-06	297978.53125	0.00012022718146909
2	516	118.62120970051	1.41128540039063	1.41143798828125	4.72412109375E-06	6.66780397295952E-06	298772.625	0.000120705270092003
2	517	118.721917700256	1.40121459960938	1.4013671875	4.6832275390625E-06	6.56292104395106E-06	299231.0625	0.000121178971312474
2	518	118.822625700002	1.39114379882813	1.39129638671875	4.64447021484375E-06	6.46183480057516E-06	299559.75	0.000121648656204343
2	519	118.923333699747	1.38107299804688	1.38092041015625	4.609375E-06	6.36518007013365E-06	299589.5	0.00012211462308187
2	520	119.024041699493	1.37100219726563	1.3714599609375	4.5758056640625E-06	6.27553436061135E-06	299719.875	0.000122577141155489
2	521	119.124749699239	1.36093139648438	1.36077880859375	4.54437255859375E-06	6.18388594375574E-06	299442.625	0.000123036370496266
2	522	119.225457698985	1.35086059570313	1.35101318359375	4.51416015625E-06	6.09868993706186E-06	299283.40625	0.000123492500279099
2	523	119.32616569873	1.34078979492188	1.34063720703125	4.48486328125E-06	6.01257397647714E-06	298924.90625	0.00012394564691931
2	524	119.426873698476	1.33071899414063	1.33056640625	4.456787109375E-06	5.93005097471178E-06	298548.34375	0.000124395897728391
2	525	119.527581698222	1.32064819335938	1.32049560546875	4.42962646484375E-06	5.84930194236222E-06	298105.4375	0.000124843354569748
2	526	119.628289697968	1.31057739257813	1.31072998046875	4.4036865234375E-06	5.77204400542541E-06	297643.8125	0.000125288148410618
2	527	119.728997697713	1.30050659179688	1.30096435546875	4.37835693359375E-06	5.69608573641744E-06	297135.3125	0.000125730366562493
2	528	119.829705697459	1.29043579101563	1.290283203125	4.35333251953125E-06	5.61703154744464E-06	296389.78125	0.000126170038129203
2	529	119.930413697205	1.28036499023438	1.28082275390625	4.3292236328125E-06	5.54496773474966E-06	295855.09375	0.000126607235870324
2	530	120.031121696951	1.27029418945313	1.27044677734375	4.30633544921875E-06	5.47097033631871E-06	295018.0625	0.000127042076201178
2	531	120.131829696696	1.26022338867188	1.2603759765625	4.28375244140625E-06	5.39913844477269E-06	294222.40625	0.000127474617329426
2	532	120.232537696442	1.25015258789063	1.25030517578125	4.2620849609375E-06	5.32890680915443E-06	293355.28125	0.000127904932014644
2	533	120.333245696188	1.24008178710938	1.240234375	4.24072265625E-06	5.25949008078896E-06	292458.25	0.000128333078464493
2	534	120.433953695933	1.23001098632813	1.23016357421875	4.2205810546875E-06	5.19200511917006E-06	291467.8125	0.000128759143990465
2	535	120.534661695679	1.21994018554688	1.2200927734375	4.20074462890625E-06	5.12529823026853E-06	290446.78125	0.000129183186800219
2	536	120.635369695425	1.20986938476563	1.209716796875	4.18121337890625E-06	5.0580838433234E-06	289321.96875	0.000129605265101418
2	537	120.736077695171	1.19979858398438	1.19964599609375	4.1619873046875E-06	4.99291127198376E-06	288238.75	0.000130025378894061
2	538	120.836785694916	1.18972778320313	1.1895751953125	4.14337158203125E-06	4.92885192215908E-06	287103.21875	0.000130443586385809
2	539	120.937493694662	1.17965698242188	1.17950439453125	4.12445068359375E-06	4.86480757899699E-06	285978.53125	0.000130859902128577
2	540	121.038201694408	1.16958618164063	1.16973876953125	4.1046142578125E-06	4.80132621305529E-06	284981.40625	0.000131274267914705
2	541	121.138909694154	1.15951538085938	1.15966796875	4.08447265625E-06	4.73663203592878E-06	283921.125	0.000131686610984616
2	542	121.239617693899	1.14944458007813	1.14959716796875	4.06280517578125E-06	4.67058907815954E-06	282956.5	0.000132096858578734
2	543	121.340325693645	1.13937377929688	1.13922119140625	4.039306640625E-06	4.60166347693303E-06	282033.84375	0.000132504836074077
2	544	121.441033693391	1.12930297851563	1.129150390625	4.01275634765625E-06	4.53100528829964E-06	281390.25	0.000132910296088085
2	545	121.541741693137	1.11923217773438	1.11907958984375	3.9825439453125E-06	4.4567836994247E-06	280996.15625	0.000133312889374793
2	546	121.642449692882	1.10916137695313	1.1090087890625	3.94622802734375E-06	4.37640164818731E-06	281030.09375	0.000133712135720998
2	547	121.743157692628	1.09909057617188	1.09893798828125	3.9013671875E-06	4.28736029789434E-06	281680.21875	0.000134107292979024
2	548	121.843865692374	1.08901977539063	1.0888671875	3.8433837890625E-06	4.18493436882272E-06	283309.53125	0.000134497269755229
2	549	121.94457369212	1.07894897460938	1.0791015625	3.770751953125E-06	4.06902427130262E-06	286176.75	0.000134880669065751
2	550	122.045281691865	1.06887817382813	1.0693359375	3.67584228515625E-06	3.9307101360464E-06	290909.09375	0.000135255642817356
2	551	122.145989691611	1.05880737304688	1.058349609375	3.55499267578125E-06	3.7624249671353E-06	297707.96875	0.000135619746288285
2	552	122.246697691357	1.04873657226563	1.04827880859375	3.4033203125E-06	3.56762848241488E-06	308016.5	0.000135970112751238
2	553	122.347405691102	1.03866577148438	1.038818359375	3.22113037109375E-06	3.34616925101727E-06	322501.1875	0.000136303686304018
2	554	122.448113690848	1.02859497070313	1.0284423828125	3.011474609375E-06	3.09712800117268E-06	341507.90625	0.000136617527459748
2	555	122.548821690594	1.01852416992188	1.01837158203125	2.78778076171875E-06	2.83899657915754E-06	365298.3125	0.000136909540742636
2	556	122.64952969034	1.00845336914063	1.00860595703125	2.56683349609375E-06	2.58892350757378E-06	392937.8125	0.000137179158627987
2	557	122.750237690085	0.998382568359375	0.99853515625	2.3699951171875E-06	2.36652317653352E-06	421323.75	0.000137427748995833
2	558	122.850945689831	0.988311767578125	0.98846435546875	2.21405029296875E-06	2.18850982491858E-06	446450.71875	0.000137658586027101
2	559	122.951653689577	0.978240966796875	0.97808837890625	2.1075439453125E-06	2.06136428460013E-06	464089.21875	0.000137876195367426
2	560	123.052361689323	0.968170166015625	0.96771240234375	2.04437255859375E-06	1.97836448023736E-06	473354.25	0.000138085248181596
2	561	123.153069689068	0.958099365234375	0.958251953125	2.01263427734375E-06	1.92861079995055E-06	476118.28125	0.000138289542519487
2	562	123.253777688814	0.948028564453125	0.9478759765625	1.99188232421875E-06	1.88805734069319E-06	475869.46875	0.000138491188408807
2	563	123.35448568856	0.937957763671875	0.9381103515625	1.966552734375E-06	1.84484338205948E-06	477032.90625	0.00013869050599169
2	564	123.455193688306	0.927886962890625	0.92803955078125	1.917724609375E-06	1.77972424353356E-06	483927.4375	0.000138886098284274
2	565	123.555901688051	0.917816162109375	0.91796875	1.83258056640625E-06	1.68225164998148E-06	500915.90625	0.000139074938488193
2	566	123.656609687797	0.907745361328125	0.90789794921875	1.69525146484375E-06	1.53911526012962E-06	535553.5625	0.000139252573717386
2	567	123.757317687543	0.897674560546875	0.8978271484375	1.49169921875E-06	1.33928801915317E-06	601882.1875	0.000139413052238524
2	568	123.858025687289	0.887603759765625	0.8880615234375	1.21246337890625E-06	1.07674202354247E-06	732444.0625	0.000139549214509316
2	569	123.958733687034	0.877532958984375	0.877685546875	8.53881835937501E-07	7.4943972094843E-07	1027877.0625	0.000139653275255114
2	570	124.05944168678	0.867462158203125	0.86761474609375	4.2083740234375E-07	3.6512471979222E-07	2061639	0.000139717449201271
2	571	124.160149686526	0.857391357421875	0.8575439453125	-6.74438476562497E-08	-5.78360577208059E-08	-12714933	0.000139735246193595
2	572	124.260857686271	0.847320556640625	0.84716796875	-5.77697753906251E-07	-4.89407000259234E-07	-1466455.375	0.000139702766318806
2	573	124.361565686017	0.837249755859375	0.83740234375	-1.07452392578125E-06	-8.99808810572722E-07	-779324.0625	0.000139619573019445
2	574	124.462273685763	0.827178955078125	0.82733154296875	-1.517333984375E-06	-1.2553382475744E-06	-545253.4375	0.000139489056891762
2	575	124.562981685509	0.817108154296875	0.8172607421875	-1.86981201171875E-06	-1.52812390297186E-06	-437081.78125	0.000139318508445285
2	576	124.663689685254	0.807037353515625	0.80780029296875	-2.105712890625E-06	-1.70099542629032E-06	-383623.1875	0.000139118317747489
2	577	124.764397685	0.796966552734375	0.79742431640625	-2.22412109375E-06	-1.77356821495778E-06	-358534.5625	0.000138900300953537
2	578	124.865105684746	0.786895751953125	0.78704833984375	-2.236328125E-06	-1.76009837105084E-06	-351937.78125	0.000138675692141987
2	579	124.965813684492	0.776824951171875	0.77728271484375	-2.17254638671875E-06	-1.68868268701772E-06	-357774.96875	0.000138453688123263
2	580	125.066521684237	0.766754150390625	0.7672119140625	-2.06390380859375E-06	-1.58345164891216E-06	-371728.53125	0.000138240371597931
2	581	125.167229683983	0.756683349609375	0.75653076171875	-1.94305419921875E-06	-1.46998036143486E-06	-389351.34375	0.000138038594741374
2	582	125.267937683729	0.746612548828125	0.74652099609375	-1.83074951171875E-06	-1.36669291350699E-06	-407767.96875	0.000137848575832322
2	583	125.368645683475	0.736541748046875	0.7364501953125	-1.744384765625E-06	-1.28465239868092E-06	-422183.375	0.000137668554089032
2	584	125.46935368322	0.726470947265625	0.726470947265625	-1.69708251953125E-06	-1.23288111808506E-06	-428070.5	0.000137495255330577
2	585	125.570061682966	0.716400146484375	0.716339111328125	-1.69586181640625E-06	-1.2148120731581E-06	-422404.1875	0.000137324415845796
2	586	125.670769682712	0.706329345703125	0.70623779296875	-1.7437744140625E-06	-1.23151937714283E-06	-405005.25	0.000137151218950748
2	587	125.771477682458	0.696258544921875	0.6961669921875	-1.83837890625E-06	-1.27981866171467E-06	-378685.28125	0.000136970833409578
2	588	125.872185682203	0.686187744140625	0.6861572265625	-1.96624755859375E-06	-1.34915489979903E-06	-348967.875	0.000136779257445596
2	589	125.972893681949	0.676116943359375	0.67608642578125	-2.11090087890625E-06	-1.42715134643367E-06	-320283.375	0.000136573959025554
2	590	126.073601681695	0.666046142578125	0.666015625	-2.24853515625E-06	-1.49755953771091E-06	-296199.78125	0.000136354443384334
2	591	126.17430968144	0.655975341796875	0.655914306640625	-2.35565185546875E-06	-1.54510564698285E-06	-278442.8125	0.000136122602270916
2	592	126.275017681186	0.645904541015625	0.64581298828125	-2.41455078125E-06	-1.55934810663894E-06	-267467.15625	0.000135882408358157
2	593	126.375725680932	0.635833740234375	0.635772705078125	-2.42034912109375E-06	-1.53879193476314E-06	-262678.09375	0.000135638954816386
2	594	126.476433680678	0.625762939453125	0.625701904296875	-2.37640380859375E-06	-1.48692026868957E-06	-263297.8125	0.00013539740757551
2	595	126.577141680423	0.615692138671875	0.61572265625	-2.29522705078125E-06	-1.41322323088389E-06	-268262.21875	0.000135162175865844
2	596	126.677849680169	0.605621337890625	0.6055908203125	-2.19146728515625E-06	-1.32713250877714E-06	-276340.34375	0.000134936257381923
2	597	126.778557679915	0.595550537109375	0.595550537109375	-2.0745849609375E-06	-1.23552013064909E-06	-287069.71875	0.000134721442009322
2	598	126.879265679661	0.585479736328125	0.585540771484375	-1.95587158203125E-06	-1.14524254968273E-06	-299375.875	0.000134518486447632
2	599	126.979973679406	0.575408935546875	0.575439453125	-1.83929443359375E-06	-1.0584026313154E-06	-312858.8125	0.000134327390696853
2	600	127.080681679152	0.565338134765625	0.5653076171875	-1.72943115234375E-06	-9.77660533862945E-07	-326874.90625	0.000134147689095698
2	601	127.181389678898	0.555267333984375	0.555267333984375	-1.627197265625E-06	-9.03529439710837E-07	-341241.5625	0.000133978668600321
2	602	127.282097678644	0.545196533203125	0.545318603515625	-1.53289794921875E-06	-8.35917774111294E-07	-355743.59375	0.000133819543407299
2	603	127.382805678389	0.535125732421875	0.53515625	-1.446533203125E-06	-7.74121247104631E-07	-369957.8125	0.000133669527713209
2	604	127.483513678135	0.525054931640625	0.524993896484375	-1.36810302734375E-06	-7.18245701136766E-07	-383738.59375	0.000133527792058885
2	605	127.584221677881	0.514984130859375	0.5150146484375	-1.29669189453125E-06	-6.67815299948415E-07	-397175.8125	0.000133393608848564
2	606	127.684929677627	0.504913330078125	0.50494384765625	-1.231689453125E-06	-6.21934020728077E-07	-409960.34375	0.000133266294142231
2	607	127.785637677372	0.494842529296875	0.494873046875	-1.171875E-06	-5.79929348987207E-07	-422291.6875	0.000133145265863277
2	608	127.886345677118	0.484771728515625	0.484771728515625	-1.116943359375E-06	-5.41462497949396E-07	-434016.4375	0.000133030014694668
2	609	127.987053676864	0.474700927734375	0.4747314453125	-1.06689453125E-06	-5.06488333940069E-07	-444965.6875	0.000132920045871288
2	610	128.087761676609	0.464630126953125	0.464569091796875	-1.0205078125E-06	-4.74096367497623E-07	-455233.28125	0.000132814937387593
2	611	128.188469676355	0.454559326171875	0.454559326171875	-9.77783203125E-07	-4.44460482640352E-07	-464887.65625	0.000132714325445704
2	612	128.289177676101	0.444488525390625	0.4444580078125	-9.38720703125E-07	-4.17221940551826E-07	-473472.0625	0.00013261781714391
2	613	128.389885675847	0.434417724609375	0.43438720703125	-9.02404785156249E-07	-3.91993069115415E-07	-481366.28125	0.00013252510689199
2	614	128.490593675592	0.424346923828125	0.424407958984375	-8.6883544921875E-07	-3.68740671774503E-07	-488479.125	0.000132435918203555
2	615	128.591301675338	0.414276123046875	0.414337158203125	-8.380126953125E-07	-3.47219781815511E-07	-494428.28125	0.000132349974592216
2	616	128.692009675084	0.404205322265625	0.404296875	-8.099365234375E-07	-3.27454813486838E-07	-499171.0625	0.000132266985019669
2	617	128.79271767483	0.394134521484375	0.394134521484375	-7.8399658203125E-07	-3.09000114384617E-07	-502724.8125	0.000132186731207184
2	618	128.893425674575	0.384063720703125	0.384063720703125	-7.58972167968749E-07	-2.91493648774122E-07	-506031.375	0.00013210903853178
2	619	128.994133674321	0.373992919921875	0.37396240234375	-7.36083984374999E-07	-2.75267723282013E-07	-508043.125	0.000132033746922389
2	620	129.094841674067	0.363922119140625	0.364013671875	-7.14111328125E-07	-2.59946290270818E-07	-509743.59375	0.000131960725411773
2	621	129.195549673813	0.353851318359375	0.35382080078125	-6.9427490234375E-07	-2.45648891450401E-07	-509626.375	0.000131889813928865
2	622	129.296257673558	0.343780517578125	0.343719482421875	-6.744384765625E-07	-2.31817637086351E-07	-509638.03125	0.000131820896058343
2	623	129.396965673304	0.333709716796875	0.333709716796875	-6.561279296875E-07	-2.18956259345759E-07	-508604.6875	0.000131753899040632
2	624	129.49767367305	0.323638916015625	0.323638916015625	-6.38732910156251E-07	-2.06718823392293E-07	-506688.96875	0.000131688691908494
2	625	129.598381672796	0.313568115234375	0.313568115234375	-6.2255859375E-07	-1.9521451122273E-07	-503676.5	0.000131625187350437
2	626	129.699089672541	0.303497314453125	0.303497314453125	-6.0760498046875E-07	-1.84406488301647E-07	-499497.71875	0.00013156323984731
2	627	129.799797672287	0.293426513671875	0.29339599609375	-5.92651367187499E-07	-1.73881531395637E-07	-495056.65625	0.000131502805743366
2	628	129.900505672033	0.283355712890625	0.28338623046875	-5.7952880859375E-07	-1.64230471000337E-07	-488994.25	0.000131443768623285
2	629	130.001213671778	0.273284912109375	0.273284912109375	-5.6732177734375E-07	-1.55040481786273E-07	-481710.59375	0.000131386026623659
2	630	130.101921671524	0.263214111328125	0.263275146484375	-5.5511474609375E-07	-1.46147911550543E-07	-474271.5625	0.000131329506984912
2	631	130.20262967127	0.253143310546875	0.25311279296875	-5.43823242187499E-07	-1.37648612508201E-07	-465432.125	0.000131274166051298
2	632	130.303337671016	0.243072509765625	0.243072509765625	-5.34667968749999E-07	-1.29963083850271E-07	-454623.3125	0.000131219858303666
2	633	130.404045670761	0.233001708984375	0.23291015625	-5.2642822265625E-07	-1.22610472885754E-07	-442434.78125	0.000131166438222863
2	634	130.504753670507	0.222930908203125	0.222930908203125	-5.1910400390625E-07	-1.15724326121835E-07	-429453.28125	0.000131113789393567
2	635	130.605461670253	0.212860107421875	0.212921142578125	-5.133056640625E-07	-1.09293630146112E-07	-414803.78125	0.000131061795400456
2	636	130.706169669999	0.202789306640625	0.202850341796875	-5.0811767578125E-07	-1.03071833734703E-07	-399219.25	0.000131010368932039
2	637	130.806877669744	0.192718505859375	0.19268798828125	-5.0567626953125E-07	-9.74377414308947E-08	-381050.09375	0.000130959320813417
2	638	130.90758566949	0.182647705078125	0.182708740234375	-5.04455566406251E-07	-9.21684417676261E-08	-362189.96875	0.000130908461869694
2	639	131.008293669236	0.172576904296875	0.172576904296875	-5.0567626953125E-07	-8.72680416819094E-08	-341279.40625	0.000130857588374056
2	640	131.109001668982	0.162506103515625	0.162506103515625	-5.10253906249999E-07	-8.29193709250831E-08	-318480.875	0.000130806438392028
2	641	131.209709668727	0.152435302734375	0.15252685546875	-5.16662597656251E-07	-7.88049163702453E-08	-295215.625	0.000130754720885307
2	642	131.310417668473	0.142364501953125	0.142364501953125	-5.279541015625E-07	-7.51619211314392E-08	-269653.1875	0.000130702130263671
2	643	131.411125668219	0.132293701171875	0.132354736328125	-5.43823242187499E-07	-7.19775741231388E-08	-243378.25	0.000130648157210089
2	644	131.511833667965	0.122222900390625	0.12225341796875	-5.66711425781249E-07	-6.92824073666998E-08	-215724.28125	0.000130592234199867
2	645	131.61254166771	0.112152099609375	0.1121826171875	-5.9814453125E-07	-6.71014177555662E-08	-187551.015625	0.000130533589981496
2	646	131.713249667456	0.102081298828125	0.1021728515625	-6.40869140625E-07	-6.54794263255098E-08	-159428.578125	0.000130471191368997
2	647	131.813957667202	0.092010498046875	0.092132568359375	-6.96716308593751E-07	-6.41902602183109E-08	-132238.28125	0.00013040384510532
2	648	131.914665666947	0.081939697265625	0.08209228515625	-7.71179199218749E-07	-6.33078656164798E-08	-106450.3359375	0.00013032992137596
2	649	132.015373666693	0.071868896484375	0.0718994140625	-8.7005615234375E-07	-6.25565235168324E-08	-82637.671875	0.000130247281049378
2	650	132.116081666439	0.061798095703125	0.061767578125	-9.9761962890625E-07	-6.16205468872977E-08	-61914.9609375	0.000130153232021257
2	651	132.216789666185	0.051727294921875	0.0517578125	-1.158447265625E-06	-5.99586940097652E-08	-44678.609375	0.000130044674733654
2	652	132.31749766593	0.041656494140625	0.0417510986328125	-1.351318359375E-06	-5.64190258955932E-08	-30896.56640625	0.000129918291349895
2	653	132.418205665676	0.031585693359375	0.0316864013671875	-1.57012939453125E-06	-4.9751751163285E-08	-20180.759765625	0.000129771186038852
2	654	132.518913665422	0.021514892578125	0.0216033935546875	-1.79931640625E-06	-3.88713417009967E-08	-12006.4462890625	0.000129601525259204
2	655	132.619621665168	0.011444091796875	0.0115264892578125	-2.01904296875E-06	-2.32724772786241E-08	-5708.8876953125	0.000129409250803292
2	656	132.720329664913	0.001373291015625	0.00145263671875	-2.205810546875E-06	-3.20424109467865E-09	-658.550109863281	0.000129196516354568
2	657	132.821037664659	-0.008697509765625	-0.0086334228515625	-2.342529296875E-06	2.02240464375336E-08	3685.51318359375	0.000128967483760789
2	658	132.921745664405	-0.018768310546875	-0.01864013671875	-2.42095947265625E-06	4.51270132373338E-08	7699.4833984375	0.00012872762454208
2	659	133.022453664151	-0.028839111328125	-0.0286956787109375	-2.44476318359375E-06	7.01541367220671E-08	11737.611328125	0.00012848261394538
2	660	133.123161663896	-0.038909912109375	-0.0388031005859375	-2.42431640625E-06	9.40709909968973E-08	16005.791015625	0.000128237443277612
2	661	133.223869663642	-0.048980712890625	-0.0488311767578125	-2.37548828125E-06	1.15997885075103E-07	20556.26953125	0.000127995750517584
2	662	133.324577663388	-0.059051513671875	-0.0589599609375	-2.3101806640625E-06	1.36208157641704E-07	25521.796875	0.000127759805764072
2	663	133.425285663134	-0.069122314453125	-0.06903076171875	-2.23968505859375E-06	1.54607164404297E-07	30821.638671875	0.000127530700410716
2	664	133.525993662879	-0.079193115234375	-0.0791015625	-2.169189453125E-06	1.71586279407165E-07	36465.953125	0.000127308696391992
2	665	133.626701662625	-0.089263916015625	-0.0892333984375	-2.10235595703125E-06	1.87600363688034E-07	42444.4765625	0.000127093619084917
2	666	133.727409662371	-0.099334716796875	-0.099334716796875	-2.04193115234375E-06	2.02834655738116E-07	48647.4375	0.000126884930068627
2	667	133.828117662116	-0.109405517578125	-0.109283447265625	-1.98760986328125E-06	2.17212843267589E-07	54982.34765625	0.000126682032714598
2	668	133.928825661862	-0.119476318359375	-0.119384765625	-1.94061279296875E-06	2.31679592843648E-07	61519.109375	0.000126484228530899
2	669	134.029533661608	-0.129547119140625	-0.129486083984375	-1.89910888671875E-06	2.45908154283825E-07	68182.546875	0.000126290877233259
2	670	134.130241661354	-0.139617919921875	-0.139556884765625	-1.86370849609375E-06	2.60093344195411E-07	74881.28125	0.000126101411296986
2	671	134.230949661099	-0.149688720703125	-0.149566650390625	-1.8341064453125E-06	2.74321138249434E-07	81547.421875	0.000125915204989724
2	672	134.331657660845	-0.159759521484375	-0.15960693359375	-1.80999755859375E-06	2.88888145405508E-07	88180.75	0.000125731719890609
2	673	134.432365660591	-0.169830322265625	-0.169708251953125	-1.7901611328125E-06	3.03805109069799E-07	94800.546875	0.000125550432130694
2	674	134.533073660337	-0.179901123046875	-0.179779052734375	-1.7742919921875E-06	3.18980511337941E-07	101324.390625	0.000125370948808268
2	675	134.633781660082	-0.189971923828125	-0.1898193359375	-1.76361083984375E-06	3.34767435106187E-07	107631.078125	0.000125192804262042
2	676	134.734489659828	-0.200042724609375	-0.199920654296875	-1.75628662109375E-06	3.51117961372438E-07	113831.453125	0.000125015561934561
2	677	134.835197659574	-0.189971923828125	-0.189788818359375	-1.5313720703125E-06	2.90637302668983E-07	123933.84375	0.000124850004795007
