Potential - Start -0.2 V, Upper Vertex 1.5 V, Lower Vertex -0.2 V, Stop -0.19 V; Scan - # end cross 5, Rate 0.1 Vps, Step 0.01 V 
Scan	Index	Time (s)	Potential applied (V)	WE(1).Potential (V)	WE(1).Current (A)	WE(1).Power (W)	WE(1).Resistance (Ω)	WE(1).Charge (C)
1	1	66.0425698332585	-0.189971923828125	-0.189788818359375	-1.995849609375E-07	3.78789941635205E-08	950917.4375	0
1	2	66.1432778330043	-0.179901123046875	-0.179779052734375	-1.64184570312501E-07	2.9516947108732E-08	1094981.375	-1.83172517154162E-08
1	3	66.24398583275	-0.169830322265625	-0.169708251953125	-1.3702392578125E-07	2.32540902089795E-08	1238530.125	-3.3484301553699E-08
1	4	66.3446938324958	-0.159759521484375	-0.15960693359375	-1.15051269531249E-07	1.8362978693176E-08	1387268	-4.61772984294839E-08
1	5	66.4454018322415	-0.149688720703125	-0.149566650390625	-9.46044921875E-08	1.41496760974746E-08	1580967.875	-5.67343008128773E-08
1	6	66.5461098319872	-0.139617919921875	-0.13946533203125	-7.59887695312503E-08	1.05977981945671E-08	1835341.5	-6.53243574788576E-08
1	7	66.646817831733	-0.129547119140625	-0.12945556640625	-5.85937499999994E-08	7.58528706512607E-09	2209375	-7.21011232940327E-08
1	8	66.7475258314787	-0.119476318359375	-0.119354248046875	-4.119873046875E-08	4.91724305717867E-09	2897037.25	-7.71260744159008E-08
1	9	66.8482338312244	-0.109405517578125	-0.109283447265625	-2.288818359375E-08	2.50129961187895E-09	4774666.5	-8.03531037263383E-08
1	10	66.9489418309702	-0.099334716796875	-0.0992431640625	-3.96728515625056E-09	3.93725940739387E-10	25015384	-8.17053873447549E-08
1	11	67.0496498307159	-0.089263916015625	-0.0892333984375	1.80053710937503E-08	-1.60668045534607E-09	-4955932	-8.09985110095113E-08
1	12	67.1503578304616	-0.079193115234375	-0.079071044921875	4.33349609374994E-08	-3.42654060681014E-09	-1824647.875	-7.79097817371621E-08
1	13	67.2510658302074	-0.069122314453125	-0.069061279296875	7.476806640625E-08	-5.16357845370408E-09	-923673.4375	-7.19628232559444E-08
1	14	67.3517738299531	-0.059051513671875	-0.05902099609375	1.1474609375E-07	-6.77242883995177E-09	-514361.71875	-6.24200282572929E-08
1	15	67.4524818296989	-0.048980712890625	-0.048846435546875	1.6815185546875E-07	-8.2136191181803E-09	-290490	-4.81749822256461E-08
1	16	67.5531898294446	-0.038909912109375	-0.038763427734375	2.3956298828125E-07	-9.28628196561476E-09	-161808.921875	-2.76449085845343E-08
1	17	67.6538978291903	-0.028839111328125	-0.02872314453125	3.3538818359375E-07	-9.63340252013722E-09	-85641.5	1.30618083016287E-09
1	18	67.7546058289361	-0.018768310546875	-0.0186279296875	4.638671875E-07	-8.64088534058283E-09	-40157.8984375	4.15518854879338E-08
1	19	67.8553138286818	-0.008697509765625	-0.00859375	6.317138671875E-07	-5.42879119436179E-09	-13603.865234375	9.67187716582885E-08
1	20	67.9560218284275	0.001373291015625	0.0015106201171875	8.41369628906249E-07	1.27098986890672E-09	1795.42980957031	1.70894423945356E-07
1	21	68.0567298281733	0.011444091796875	0.011566162109375	1.09161376953125E-06	1.26257813093389E-08	10595.4716796875	2.68227864808068E-07
1	22	68.157437827919	0.021514892578125	0.0216094970703125	1.3720703125E-06	2.96497475460455E-08	15749.5546875	3.9228422110682E-07
1	23	68.2581458276647	0.031585693359375	0.0317138671875	1.6595458984375E-06	5.26306145332001E-08	19109.966796875	5.44938188795641E-07
1	24	68.3588538274105	0.041656494140625	0.0417388916015625	1.92840576171875E-06	8.04895137207495E-08	21644.248046875	7.25605900697701E-07
1	25	68.4595618271562	0.051727294921875	0.051788330078125	2.15057373046875E-06	1.11374617972615E-07	24081.169921875	9.30998851345066E-07
1	26	68.560269826902	0.061798095703125	0.061920166015625	2.30682373046875E-06	1.42838914030108E-07	26842.17578125	1.15544662548928E-06
1	27	68.6609778266477	0.071868896484375	0.071929931640625	2.39044189453125E-06	1.7194430768086E-07	30090.64453125	1.39197277349012E-06
1	28	68.7616858263934	0.081939697265625	0.08203125	2.40936279296875E-06	1.9764303260672E-07	34046.8671875	1.63366212291294E-06
1	29	68.8623938261392	0.092010498046875	0.092010498046875	2.3785400390625E-06	2.18850644273516E-07	38683.60546875	1.87475211532728E-06
1	30	68.9631018258849	0.102081298828125	0.102142333984375	2.31536865234375E-06	2.36497157857229E-07	44114.93359375	2.1111090973136E-06
1	31	69.0638098256306	0.112152099609375	0.1121826171875	2.2344970703125E-06	2.50671718049489E-07	50204.86328125	2.34021308642696E-06
1	32	69.1645178253764	0.122222900390625	0.12225341796875	2.1484375E-06	2.62653827576287E-07	56903.41015625	2.56091152550653E-06
1	33	69.2652258251221	0.132293701171875	0.13232421875	2.0623779296875E-06	2.72902553888343E-07	64160.99609375	2.77294293482555E-06
1	34	69.3659338248679	0.142364501953125	0.142425537109375	1.981201171875E-06	2.82173630239413E-07	71888.4765625	2.97655310532718E-06
1	35	69.4666418246136	0.152435302734375	0.152496337890625	1.90643310546875E-06	2.90724074147874E-07	79990.3984375	3.17231115332106E-06
1	36	69.5673498243593	0.162506103515625	0.162567138671875	1.83837890625E-06	2.98859987424294E-07	88429.6171875	3.36087737196067E-06
1	37	69.6680578241051	0.172576904296875	0.172576904296875	1.77703857421875E-06	3.06675815409108E-07	97114.890625	3.54292819793045E-06
1	38	69.7687658238508	0.182647705078125	0.1827392578125	1.7230224609375E-06	3.14863825678913E-07	106057.390625	3.71917030861368E-06
1	39	69.8694738235965	0.192718505859375	0.192779541015625	1.6741943359375E-06	3.22750423720208E-07	115147.6484375	3.89023352909135E-06
1	40	69.9701818233423	0.202789306640625	0.20281982421875	1.63116455078125E-06	3.30832506278966E-07	124340.5078125	4.05667151426314E-06
1	41	70.070889823088	0.212860107421875	0.212921142578125	1.59271240234375E-06	3.39122124159985E-07	133684.625	4.21900676883524E-06
1	42	70.1715978228337	0.222930908203125	0.222991943359375	1.55792236328125E-06	3.47404125022877E-07	143134.1875	4.37765402239165E-06
1	43	70.2723058225795	0.233001708984375	0.23297119140625	1.5264892578125E-06	3.55628003489983E-07	152618.953125	4.53296615887666E-06
1	44	70.3730138223252	0.243072509765625	0.24310302734375	1.49871826171875E-06	3.64342952252628E-07	162207.296875	4.68529742647661E-06
1	45	70.473721822071	0.253143310546875	0.253143310546875	1.47369384765625E-06	3.73055740965356E-07	171774.703125	4.83497024106327E-06
1	46	70.5744298218167	0.263214111328125	0.26324462890625	1.45050048828125E-06	3.81836457563622E-07	181485.375	4.98221515954356E-06
1	47	70.6751378215624	0.273284912109375	0.273284912109375	1.429443359375E-06	3.90645283232516E-07	191182.765625	5.1272318160045E-06
1	48	70.7758458213082	0.283355712890625	0.28338623046875	1.41082763671875E-06	3.99809124473904E-07	200865.234375	5.27025122210034E-06
1	49	70.8765538210539	0.293426513671875	0.29339599609375	1.39373779296875E-06	4.08917088634553E-07	210510.1875	5.41147210242343E-06
1	50	70.9772618207996	0.303497314453125	0.303466796875	1.378173828125E-06	4.18230001741904E-07	220194.859375	5.55104907107307E-06
1	51	71.0779698205454	0.313568115234375	0.31353759765625	1.3641357421875E-06	4.2770784602908E-07	229843.390625	5.6891353779065E-06
1	52	71.1786778202911	0.323638916015625	0.32366943359375	1.35162353515625E-06	4.37479201309543E-07	239467.15625	5.82588472752832E-06
1	53	71.2793858200369	0.333709716796875	0.333740234375	1.34033203125E-06	4.4732271931025E-07	248998.1875	5.96143536313321E-06
1	54	71.3800938197826	0.343780517578125	0.34381103515625	1.3299560546875E-06	4.57253548802328E-07	258513.078125	6.09589505984331E-06
1	55	71.4808018195283	0.353851318359375	0.353851318359375	1.3214111328125E-06	4.67583049612585E-07	267782.90625	6.22940206085332E-06
1	56	71.5815098192741	0.363922119140625	0.363922119140625	1.3140869140625E-06	4.78225274491706E-07	276939.1875	6.36210961602046E-06
1	57	71.6822178190198	0.373992919921875	0.37396240234375	1.3067626953125E-06	4.88680086618842E-07	286174.6875	6.49408002573182E-06
1	58	71.7829258187655	0.384063720703125	0.384033203125	1.30126953125E-06	4.99730731462478E-07	295121.9375	6.62540469420492E-06
1	59	71.8836338185113	0.394134521484375	0.3941650390625	1.29608154296875E-06	5.10870052039536E-07	304120.5625	6.75619185130927E-06
1	60	71.984341818257	0.404205322265625	0.40423583984375	1.29180908203125E-06	5.22195534813363E-07	312922.28125	6.88650243318989E-06
1	61	72.0850498180027	0.414276123046875	0.414276123046875	1.2890625E-06	5.34027776666335E-07	321377.875	7.01645967637887E-06
1	62	72.1857578177485	0.424346923828125	0.424407958984375	1.28692626953125E-06	5.46181752270058E-07	329784.21875	7.14617090125103E-06
1	63	72.2864658174942	0.434417724609375	0.434417724609375	1.28509521484375E-06	5.58268141048757E-07	338043.21875	7.27568249203614E-06
1	64	72.38717381724	0.444488525390625	0.44451904296875	1.2841796875E-06	5.70842303204699E-07	346150.1875	7.40505583962658E-06
1	65	72.4878818169857	0.454559326171875	0.45452880859375	1.28448486328125E-06	5.83835344514227E-07	353860.78125	7.53439826439717E-06
1	66	72.5885898167314	0.464630126953125	0.46466064453125	1.28509521484375E-06	5.97133180235687E-07	361576.8125	7.66378707339754E-06
1	67	72.6892978164772	0.474700927734375	0.474761962890625	1.28662109375E-06	6.10838753800635E-07	368999.03125	7.79328365752008E-06
1	68	72.7900058162229	0.484771728515625	0.484710693359375	1.2890625E-06	6.24822348527232E-07	376018	7.9229794209823E-06
1	69	72.8907138159686	0.494842529296875	0.494873046875	1.29241943359375E-06	6.39583504380425E-07	382904.375	8.05296713224379E-06
1	70	72.9914218157144	0.504913330078125	0.504913330078125	1.29669189453125E-06	6.54716984627157E-07	389385.75	8.18333955976414E-06
1	71	73.0921298154601	0.514984130859375	0.5150146484375	1.30279541015625E-06	6.70958684167999E-07	395315.09375	8.3142340372433E-06
1	72	73.1928378152058	0.525054931640625	0.525054931640625	1.31072998046875E-06	6.88205261667463E-07	400582.0625	8.44583519210573E-06
1	73	73.2935458149516	0.535125732421875	0.53509521484375	1.32049560546875E-06	7.06590867594059E-07	405223.03125	8.57832765177591E-06
1	74	73.3942538146973	0.545196533203125	0.545135498046875	1.33331298828125E-06	7.26836219655524E-07	408857.875	8.711957889318E-06
1	75	73.4949618144431	0.555267333984375	0.55517578125	1.35040283203125E-06	7.49710977743234E-07	411118.65625	8.84709334059153E-06
1	76	73.5956698141888	0.565338134765625	0.565338134765625	1.37298583984375E-06	7.76201261487586E-07	411758.1875	8.98422695172485E-06
1	77	73.6963778139345	0.575408935546875	0.575408935546875	1.40472412109375E-06	8.08290792519983E-07	409624.15625	9.1240963229211E-06
1	78	73.7970858136803	0.585479736328125	0.585479736328125	1.44927978515625E-06	8.48523882268637E-07	403979.8125	9.26780649024295E-06
1	79	73.897793813426	0.595550537109375	0.59552001953125	1.51336669921875E-06	9.01240127859637E-07	393506.75	9.41698726819595E-06
1	80	73.9985018131717	0.605621337890625	0.605621337890625	1.60400390625E-06	9.71418899098353E-07	377568.5	9.57395968725905E-06
1	81	74.0992098129175	0.615692138671875	0.61572265625	1.734619140625E-06	1.06804429833574E-06	354961.3125	9.74207250692416E-06
1	82	74.1999178126632	0.625762939453125	0.625701904296875	1.91864013671875E-06	1.20049674023903E-06	326117.40625	9.92602872429416E-06
1	83	74.300625812409	0.635833740234375	0.6357421875	2.16827392578125E-06	1.37846313918999E-06	293202	1.0131820999959E-05
1	84	74.4013338121547	0.645904541015625	0.645904541015625	2.49847412109375E-06	1.61377568019816E-06	258519.609375	1.03668107840349E-05
1	85	74.5020418119004	0.655975341796875	0.6558837890625	2.9168701171875E-06	1.91312778952124E-06	224858.765625	1.06394954855205E-05
1	86	74.6027498116462	0.666046142578125	0.665985107421875	3.42376708984375E-06	2.28017779591028E-06	194518.234375	1.09587717815884E-05
1	87	74.7034578113919	0.676116943359375	0.676055908203125	4.002685546875E-06	2.70603914032108E-06	168900.59375	1.13327232611482E-05
1	88	74.8041658111376	0.686187744140625	0.68609619140625	4.62554931640625E-06	3.17357171297772E-06	148327.515625	1.17671888801851E-05
1	89	74.9048738108834	0.696258544921875	0.696136474609375	5.2490234375E-06	3.65403639079886E-06	132622.09375	1.22644132716232E-05
1	90	75.0055818106291	0.706329345703125	0.70623779296875	5.8258056640625E-06	4.11440396419493E-06	121225.7734375	1.28220754049835E-05
1	91	75.1062898103748	0.716400146484375	0.716278076171875	6.3018798828125E-06	4.51389814770664E-06	113661.0234375	1.34327528940048E-05
1	92	75.2069978101206	0.726470947265625	0.726318359375	6.640625E-06	4.82320774608525E-06	109375.0078125	1.40844595080125E-05
1	93	75.3077058098663	0.736541748046875	0.736328125	6.82373046875E-06	5.02450484418659E-06	107906.9765625	1.47624441524385E-05
1	94	75.4084138096121	0.746612548828125	0.74639892578125	6.8603515625E-06	5.12055885337759E-06	108798.9375	1.54514927999116E-05
1	95	75.5091218093578	0.756683349609375	0.75653076171875	6.7840576171875E-06	5.13234817844932E-06	111515.9765625	1.6138543287525E-05
1	96	75.6098298091035	0.766754150390625	0.76690673828125	6.6375732421875E-06	5.09039955431945E-06	115540.2265625	1.68143760674866E-05
1	97	75.7105378088493	0.776824951171875	0.7769775390625	6.4605712890625E-06	5.01971862831851E-06	120264.53125	1.74739197973395E-05
1	98	75.811245808595	0.786895751953125	0.78704833984375	6.2896728515625E-06	4.9502764341014E-06	125133.4296875	1.81159448402468E-05
1	99	75.9119538083407	0.796966552734375	0.79742431640625	6.1431884765625E-06	4.89872763864696E-06	129806.265625	1.8741990061244E-05
1	100	76.0126618080865	0.807037353515625	0.80718994140625	6.04248046875E-06	4.87742954646819E-06	133585.859375	1.93555861187633E-05
1	101	76.1133698078322	0.817108154296875	0.81756591796875	5.99365234375E-06	4.90020602228469E-06	136405.296875	1.99616533791414E-05
1	102	76.214077807578	0.827178955078125	0.82733154296875	6.011962890625E-06	4.97388646181207E-06	137614.21875	2.05661854124628E-05
1	103	76.3147858073237	0.837249755859375	0.83709716796875	6.0882568359375E-06	5.09646224600147E-06	137493.734375	2.11754795600427E-05
1	104	76.4154938070694	0.847320556640625	0.84747314453125	6.219482421875E-06	5.2708442126459E-06	136261.046875	2.1795223801746E-05
1	105	76.5162018068152	0.857391357421875	0.85723876953125	6.38427734375E-06	5.47284980711993E-06	134273.421875	2.2429872842622E-05
1	106	76.6169098065609	0.867462158203125	0.86761474609375	6.561279296875E-06	5.69266239835997E-06	132232.5625	2.30817331612343E-05
1	107	76.7176178063066	0.877532958984375	0.87738037109375	6.7138671875E-06	5.8906152844429E-06	130681.8203125	2.37501899391646E-05
1	108	76.8183258060524	0.887603759765625	0.88775634765625	6.817626953125E-06	6.05239165452076E-06	130214.859375	2.44315542659024E-05
1	109	76.9190338057981	0.897674560546875	0.89752197265625	6.8634033203125E-06	6.16005490883254E-06	130769.234375	2.51204492087709E-05
1	110	77.0197418055438	0.907745361328125	0.90728759765625	6.8511962890625E-06	6.21600565864355E-06	132427.609375	2.58110339927953E-05
1	111	77.1204498052896	0.917816162109375	0.91766357421875	6.793212890625E-06	6.23388405074365E-06	135085.359375	2.64980844804086E-05
1	112	77.2211578050353	0.927886962890625	0.92803955078125	6.707763671875E-06	6.22506968284142E-06	138353.046875	2.71779135800898E-05
1	113	77.3218658047811	0.937957763671875	0.9381103515625	6.6131591796875E-06	6.20387254457455E-06	141855.109375	2.78486750175944E-05
1	114	77.4225738045268	0.948028564453125	0.94818115234375	6.5277099609375E-06	6.18945159658324E-06	145254.796875	2.85103706119116E-05
1	115	77.5232818042725	0.958099365234375	0.9576416015625	6.4666748046875E-06	6.19275670032948E-06	148088.71875	2.91646902041975E-05
1	116	77.6239898040183	0.968170166015625	0.96832275390625	6.4453125E-06	6.2411427279585E-06	150236.75	2.98148588626646E-05
1	117	77.724697803764	0.978240966796875	0.9783935546875	6.4666748046875E-06	6.32695264357608E-06	151297.78125	3.0465029340121E-05
1	118	77.8254058035097	0.988311767578125	0.98846435546875	6.5460205078125E-06	6.47050774205127E-06	151002.328125	3.11202711600345E-05
1	119	77.9261138032555	0.998382568359375	0.99884033203125	6.6802978515625E-06	6.67255062580807E-06	149520.328125	3.17862686642911E-05
1	120	78.0268218030012	1.00845336914063	1.00830078125	6.8603515625E-06	6.91729746904457E-06	146975.09375	3.24680950143375E-05
1	121	78.1275298027469	1.01852416992188	1.0186767578125	7.073974609375E-06	7.20609341442469E-06	144003.453125	3.31697447109036E-05
1	122	78.2282378024927	1.02859497070313	1.02874755859375	7.28759765625E-06	7.49709806768806E-06	141164.15625	3.38929057761561E-05
1	123	78.3289458022384	1.03866577148438	1.03790283203125	7.476806640625E-06	7.76019805925898E-06	138816.328125	3.4636352211237E-05
1	124	78.4296538019842	1.04873657226563	1.0491943359375	7.6141357421875E-06	7.98870769358473E-06	137795.59375	3.53962423105258E-05
1	125	78.5303618017299	1.05880737304688	1.05865478515625	7.6812744140625E-06	8.1318175944034E-06	137822.8125	3.61664278898388E-05
1	126	78.6310698014756	1.06887817382813	1.06903076171875	7.6812744140625E-06	8.21151843410917E-06	139173.625	3.69399931514636E-05
1	127	78.7317778012214	1.07894897460938	1.0791015625	7.6202392578125E-06	8.22301171865547E-06	141609.9375	3.77104843209963E-05
1	128	78.8324858009671	1.08901977539063	1.08917236328125	7.51953125E-06	8.19006527308375E-06	144845.78125	3.84728336939588E-05
1	129	78.9331938007128	1.09909057617188	1.0992431640625	7.3944091796875E-06	8.12825328466715E-06	148658.6875	3.92238107451703E-05
1	130	79.0339018004586	1.10916137695313	1.10931396484375	7.26318359375E-06	8.05715080787195E-06	152731.09375	3.99618802475743E-05
1	131	79.1346098002043	1.11923217773438	1.119384765625	7.12890625E-06	7.97998836787883E-06	157020.546875	4.06865765398834E-05
1	132	79.2353177999501	1.12930297851563	1.12945556640625	7.0037841796875E-06	7.9104629548965E-06	161263.625	4.13982161262538E-05
1	133	79.3360257996958	1.13937377929688	1.1395263671875	6.884765625E-06	7.84537132858532E-06	165514.1875	4.20975593442563E-05
1	134	79.4367337994415	1.14944458007813	1.14959716796875	6.77490234375E-06	7.78840785642387E-06	169684.6875	4.27853774453979E-05
1	135	79.5374417991873	1.15951538085938	1.15966796875	6.67724609375E-06	7.74338786868611E-06	173674.59375	4.34627472714055E-05
1	136	79.638149798933	1.16958618164063	1.16912841796875	6.5887451171875E-06	7.70308906794526E-06	177443.265625	4.41307420260273E-05
1	137	79.7388577986787	1.17965698242188	1.1798095703125	6.5093994140625E-06	7.67985147831496E-06	181247.078125	4.47902857558802E-05
1	138	79.8395657984245	1.18972778320313	1.18988037109375	6.4361572265625E-06	7.65825734561076E-06	184874.359375	4.54421497124713E-05
1	139	79.9402737981702	1.19979858398438	1.199951171875	6.3720703125E-06	7.64617288950831E-06	188314.1875	4.60870942333713E-05
1	140	80.0409817979159	1.20986938476563	1.209716796875	6.3140869140625E-06	7.63825664762408E-06	191590.140625	4.67258905700874E-05
1	141	80.1416897976617	1.21994018554688	1.219482421875	6.26220703125E-06	7.63665138947545E-06	194736.84375	4.73591571790166E-05
1	142	80.2423977974074	1.23001098632813	1.23016357421875	6.21337890625E-06	7.64347169024404E-06	197986.265625	4.79873560834676E-05
1	143	80.3431057971532	1.24008178710938	1.2408447265625	6.170654296875E-06	7.65682398196077E-06	201088.03125	4.86109383928124E-05
1	144	80.4438137968989	1.25015258789063	1.25	6.134033203125E-06	7.66754146752646E-06	203781.109375	4.92305298394058E-05
1	145	80.5445217966446	1.26022338867188	1.2603759765625	6.097412109375E-06	7.68503196013626E-06	206706.703125	4.98464323754888E-05
1	146	80.6452297963904	1.27029418945313	1.27044677734375	6.06689453125E-06	7.70766655477928E-06	209406.4375	5.045895522926E-05
1	147	80.7459377961361	1.28036499023438	1.2799072265625	6.0394287109375E-06	7.72990824771114E-06	211925.21875	5.10685567860492E-05
1	148	80.8466457958818	1.29043579101563	1.29058837890625	6.0150146484375E-06	7.76290835347027E-06	214561.140625	5.16755462740548E-05
1	149	80.9473537956276	1.30050659179688	1.30035400390625	5.99365234375E-06	7.79387028160272E-06	216955.1875	5.22802292834967E-05
1	150	81.0480617953733	1.31057739257813	1.3104248046875	5.975341796875E-06	7.83023551775841E-06	219305.421875	5.28829150425736E-05
1	151	81.1487697951191	1.32064819335938	1.32110595703125	5.9600830078125E-06	7.87390126788523E-06	221658.984375	5.34839127794839E-05
1	152	81.2494777948648	1.33071899414063	1.33056640625	5.9478759765625E-06	7.91404363553738E-06	223704.46875	5.40835244464688E-05
1	153	81.3501857946105	1.34078979492188	1.34124755859375	5.938720703125E-06	7.96529457147699E-06	225847.890625	5.46820629097056E-05
1	154	81.4508937943563	1.35086059570313	1.35101318359375	5.9326171875E-06	8.01504393166397E-06	227726.34375	5.5279833759414E-05
1	155	81.551601794102	1.36093139648438	1.361083984375	5.9295654296875E-06	8.07063679530984E-06	229541.953125	5.5877142585814E-05
1	156	81.6523097938477	1.37100219726563	1.370849609375	5.9295654296875E-06	8.12854250398232E-06	231188.890625	5.64742949791253E-05
1	157	81.7530177935935	1.38107299804688	1.38153076171875	5.9326171875E-06	8.1960934039671E-06	232870.375	5.70716038055252E-05
1	158	81.8537257933392	1.39114379882813	1.39129638671875	5.9356689453125E-06	8.25827464723261E-06	234395.890625	5.76692218601238E-05
1	159	81.9544337930849	1.40121459960938	1.40106201171875	5.9417724609375E-06	8.32479145174148E-06	235798.671875	5.82672983000521E-05
1	160	82.0551417928307	1.41128540039063	1.41143798828125	5.950927734375E-06	8.39936546981335E-06	237179.5	5.88661423535086E-05
1	161	82.1558497925764	1.42135620117188	1.42120361328125	5.9600830078125E-06	8.4704915934708E-06	238453.65625	5.94659104535822E-05
1	162	82.2565577923222	1.43142700195313	1.43157958984375	5.9722900390625E-06	8.54980771691771E-06	239703.640625	6.00667517574038E-05
1	163	82.3572657920679	1.44149780273438	1.441650390625	5.9844970703125E-06	8.62755223351996E-06	240897.5	6.06688226980623E-05
1	164	82.4579737918136	1.45156860351563	1.4520263671875	6.005859375E-06	8.72066630108748E-06	241768.296875	6.1272585298866E-05
1	165	82.5586817915594	1.46163940429688	1.46209716796875	6.0272216796875E-06	8.81238338479307E-06	242582.296875	6.18784979451448E-05
1	166	82.6593897913051	1.47171020507813	1.47186279296875	6.060791015625E-06	8.92065236257622E-06	242849.953125	6.24871827312745E-05
1	167	82.7600977910508	1.48178100585938	1.48162841796875	6.1004638671875E-06	9.03862110135378E-06	242871.4375	6.3099549151957E-05
1	168	82.8608057907966	1.49185180664063	1.49200439453125	6.1553955078125E-06	9.18387740966864E-06	242389.6875	6.37166813248768E-05
1	169	82.9615137905423	1.50192260742188	1.50177001953125	6.2225341796875E-06	9.34481522563146E-06	241343.796875	6.4339954406023E-05
1	170	83.062221790288	1.49185180664063	1.4923095703125	5.9417724609375E-06	8.86696307134116E-06	251155.640625	6.49524808977731E-05
1	171	83.1629297900338	1.48178100585938	1.48193359375	5.7342529296875E-06	8.4977818914922E-06	258435.34375	6.55404146527871E-05
1	172	83.2636377897795	1.47171020507813	1.47216796875	5.5755615234375E-06	8.20816239865962E-06	264039.40625	6.61099038552493E-05
1	173	83.3643457895253	1.46163940429688	1.46148681640625	5.4443359375E-06	7.95682535681408E-06	268441.71875	6.6664804762695E-05
1	174	83.465053789271	1.45156860351563	1.45172119140625	5.3375244140625E-06	7.74859745433787E-06	271984	6.72077148919925E-05
1	175	83.5657617890167	1.44149780273438	1.44134521484375	5.2490234375E-06	7.56565441406565E-06	274593.03125	6.77407879265957E-05
1	176	83.6664697887625	1.43142700195313	1.4324951171875	5.17578125E-06	7.41428129913402E-06	276768.875	6.82657191646285E-05
1	177	83.7671777885082	1.42135620117188	1.4215087890625	5.11474609375E-06	7.27065616956679E-06	277923.65625	6.87838910380378E-05
1	178	83.8678857882539	1.41128540039063	1.41082763671875	5.0628662109375E-06	7.14283123670612E-06	278661.84375	6.92963731125928E-05
1	179	83.9685937879997	1.40121459960938	1.4013671875	5.023193359375E-06	7.03933847034932E-06	278979.34375	6.98042422300205E-05
1	180	84.0693017877454	1.39114379882813	1.3909912109375	4.986572265625E-06	6.93627816872322E-06	278947.375	7.03082769177854E-05
1	181	84.1700097874912	1.38107299804688	1.3812255859375	4.95391845703125E-06	6.84247879689792E-06	278814.75	7.08088191458955E-05
1	182	84.2707177872369	1.37100219726563	1.37115478515625	4.9273681640625E-06	6.7561841206043E-06	278273.25	7.13063855073415E-05
1	183	84.3714257869826	1.36093139648438	1.361083984375	4.90325927734375E-06	6.6737475208356E-06	277587.59375	7.18013907317072E-05
1	184	84.4721337867284	1.35086059570313	1.3507080078125	4.8809814453125E-06	6.59278020975762E-06	276728.78125	7.22940676496364E-05
1	185	84.5728417864741	1.34078979492188	1.3409423828125	4.85992431640625E-06	6.51687832942116E-06	275918.375	7.27845617802814E-05
1	186	84.6735497862198	1.33071899414063	1.33087158203125	4.8406982421875E-06	6.44234751234762E-06	274933.8125	7.3273025918752E-05
1	187	84.7742577859656	1.32064819335938	1.3201904296875	4.820556640625E-06	6.3640527514508E-06	273866.8125	7.37595109967515E-05
1	188	84.8749657857113	1.31057739257813	1.3104248046875	4.80224609375E-06	6.29298256171751E-06	272877.46875	7.42440606700256E-05
1	189	84.975673785457	1.30050659179688	1.30035400390625	4.78485107421875E-06	6.22200059297029E-06	271764.78125	7.47268059058115E-05
1	190	85.0763817852028	1.29043579101563	1.29058837890625	4.7662353515625E-06	6.15124781688792E-06	270777.3125	7.52077394281514E-05
1	191	85.1770897849485	1.28036499023438	1.28082275390625	4.74853515625E-06	6.08203163210419E-06	269730.09375	7.56868466851301E-05
1	192	85.2777977846943	1.27029418945313	1.27044677734375	4.73175048828125E-06	6.01143710809993E-06	268494.03125	7.61642149882391E-05
1	193	85.37850578444	1.26022338867188	1.26007080078125	4.71466064453125E-06	5.94080620430759E-06	267266.5	7.66398807172664E-05
1	194	85.4792137841857	1.25015258789063	1.25	4.698486328125E-06	5.87310751143377E-06	266043.15625	7.71138729760423E-05
1	195	85.5799217839315	1.24008178710938	1.2396240234375	4.68231201171875E-06	5.80430651098141E-06	264746.125	7.75862354203127E-05
1	196	85.6806297836772	1.23001098632813	1.22955322265625	4.6661376953125E-06	5.73726447328227E-06	263505.5625	7.80569680500776E-05
1	197	85.7813377834229	1.21994018554688	1.219482421875	4.65057373046875E-06	5.67129291084711E-06	262221.9375	7.85260999691673E-05
1	198	85.8820457831687	1.20986938476563	1.20941162109375	4.635009765625E-06	5.60563466933672E-06	260929.6875	7.89936675573699E-05
1	199	85.9827537829144	1.19979858398438	1.19964599609375	4.61944580078125E-06	5.54169946553884E-06	259694.8125	7.94596635387279E-05
1	200	86.0834617826602	1.18972778320313	1.18927001953125	4.6026611328125E-06	5.47380705029354E-06	258387.484375	7.99240369815379E-05
1	201	86.1841697824059	1.17965698242188	1.1798095703125	4.5855712890625E-06	5.41010103916051E-06	257287.359375	8.03867005743086E-05
1	202	86.2848777821516	1.16958618164063	1.16973876953125	4.56573486328125E-06	5.3407170526043E-06	256199.453125	8.08475015219301E-05
1	203	86.3855857818974	1.15951538085938	1.15936279296875	4.54376220703125E-06	5.26786880072905E-06	255154.8125	8.13061997178011E-05
1	204	86.4862937816431	1.14944458007813	1.14898681640625	4.51812744140625E-06	5.19126888320898E-06	254305.984375	8.1762504123617E-05
1	205	86.5870017813888	1.13937377929688	1.13922119140625	4.4866943359375E-06	5.11133703184896E-06	253911.03125	8.22159345261753E-05
1	206	86.6877097811346	1.12930297851563	1.12945556640625	4.447021484375E-06	5.02271268487675E-06	253980.25	8.26657851575874E-05
1	207	86.7884177808803	1.11923217773438	1.11968994140625	4.395751953125E-06	4.92187928102794E-06	254720.90625	8.31110519357026E-05
1	208	86.889125780626	1.10916137695313	1.10931396484375	4.32769775390625E-06	4.80077551401337E-06	256328.890625	8.35503087728284E-05
1	209	86.9898337803718	1.09909057617188	1.09954833984375	4.23736572265625E-06	4.65918856207281E-06	259488.65625	8.39815984363668E-05
1	210	87.0905417801175	1.08901977539063	1.08917236328125	4.11773681640625E-06	4.48492528448696E-06	264507.53125	8.44023088575341E-05
1	211	87.1912497798633	1.07894897460938	1.0791015625	3.961181640625E-06	4.27451686846325E-06	272419.125	8.48091149237007E-05
1	212	87.291957779609	1.06887817382813	1.0687255859375	3.76068115234375E-06	4.01913621317362E-06	284184.0625	8.51979420986027E-05
1	213	87.3926657793547	1.05880737304688	1.058349609375	3.51531982421875E-06	3.72043723473325E-06	301067.8125	8.55643156683072E-05
1	214	87.4933737791005	1.04873657226563	1.04827880859375	3.22998046875E-06	3.38592008120031E-06	324546.5	8.59039719216526E-05
1	215	87.5940817788462	1.03866577148438	1.038818359375	2.9217529296875E-06	3.0351704936038E-06	355546.28125	8.62137385411188E-05
1	216	87.6947897785919	1.02859497070313	1.0284423828125	2.61322021484375E-06	2.68754638454993E-06	393553.65625	8.64924440975301E-05
1	217	87.7954977783377	1.01852416992188	1.01837158203125	2.3345947265625E-06	2.37748486142664E-06	436209.15625	8.6741587438155E-05
1	218	87.8962057780834	1.00845336914063	1.00860595703125	2.11181640625E-06	2.12999066206976E-06	477601.15625	8.69654832058586E-05
1	219	87.9969137778291	0.998382568359375	0.99822998046875	1.96258544921875E-06	1.9591116142692E-06	508630.09375	8.71706433827057E-05
1	220	88.0976217775749	0.988311767578125	0.98876953125	1.8896484375E-06	1.86842680705013E-06	523255.8125	8.73646204126999E-05
1	221	88.1983297773206	0.978240966796875	0.9783935546875	1.878662109375E-06	1.83807082976273E-06	520792.75	8.75543701113202E-05
1	222	88.2990377770664	0.968170166015625	0.96832275390625	1.9073486328125E-06	1.84692908078432E-06	507680	8.77450074767694E-05
1	223	88.3997457768121	0.958099365234375	0.95855712890625	1.9512939453125E-06	1.87042655852565E-06	491241.8125	8.79393046488985E-05
1	224	88.5004537765578	0.948028564453125	0.9478759765625	1.98944091796875E-06	1.88574313142453E-06	476453.46875	8.81377345649526E-05
1	225	88.6011617763036	0.937957763671875	0.9381103515625	2.00836181640625E-06	1.88406488632609E-06	467102.3125	8.83390457602218E-05
1	226	88.7018697760493	0.927886962890625	0.92864990234375	1.99493408203125E-06	1.8525953464632E-06	465504.0625	8.85406261659227E-05
1	227	88.802577775795	0.917816162109375	0.91766357421875	1.94305419921875E-06	1.78307016085455E-06	472278.9375	8.87389178387821E-05
1	228	88.9032857755408	0.907745361328125	0.90789794921875	1.844482421875E-06	1.67460177635803E-06	492223.6875	8.8929635239765E-05
1	229	89.0039937752865	0.897674560546875	0.8978271484375	1.6949462890625E-06	1.52176880874322E-06	529708.3125	8.91078598215245E-05
1	230	89.1047017750323	0.887603759765625	0.8880615234375	1.49871826171875E-06	1.33095397814031E-06	592547.375	8.92686730367132E-05
1	231	89.205409774778	0.877532958984375	0.87799072265625	1.26617431640625E-06	1.11168924377125E-06	693420.125	8.94078984856606E-05
1	232	89.3061177745237	0.867462158203125	0.867919921875	1.01837158203125E-06	8.83864970546711E-07	852262.5	8.95229313755408E-05
1	233	89.4068257742695	0.857391357421875	0.85845947265625	7.794189453125E-07	6.69099563310738E-07	1101409.5	8.96134588401765E-05
1	234	89.5075337740152	0.847320556640625	0.84747314453125	5.780029296875E-07	4.89841966100357E-07	1466209.125	8.96818091860041E-05
1	235	89.6082417737609	0.837249755859375	0.83770751953125	4.29382324218749E-07	3.59696798568621E-07	1950959.5	8.97325371624902E-05
1	236	89.7089497735067	0.827178955078125	0.82733154296875	3.41186523437501E-07	2.82274356777634E-07	2424866	8.97713398444466E-05
1	237	89.8096577732524	0.817108154296875	0.81695556640625	3.06091308593751E-07	2.50062981876908E-07	2668993.25	8.98039288586006E-05
1	238	89.9103657729981	0.807037353515625	0.8074951171875	3.1158447265625E-07	2.51602926937267E-07	2591577	8.98350335774012E-05
1	239	90.0110737727439	0.796966552734375	0.79681396484375	3.3416748046875E-07	2.66269324811219E-07	2384475	8.9867549831979E-05
1	240	90.1117817724896	0.786895751953125	0.78704833984375	3.52783203125E-07	2.77657420610922E-07	2230969	8.99021397344768E-05
1	241	90.2124897722354	0.776824951171875	0.7769775390625	3.448486328125E-07	2.67939640252735E-07	2253097.5	8.99372680578381E-05
1	242	90.3131977719811	0.766754150390625	0.7672119140625	2.91748046875E-07	2.23832586243589E-07	2629707	8.99693259270862E-05
1	243	90.4139057717268	0.756683349609375	0.75714111328125	1.739501953125E-07	1.3170483725844E-07	4352632	8.99927763384767E-05
1	244	90.5146137714726	0.746612548828125	0.746551513671875	-2.47192382812497E-08	-1.84541839587382E-08	-30201234	9.00002924026921E-05
1	245	90.6153217712183	0.736541748046875	0.7364501953125	-3.14941406249999E-07	-2.31938642514251E-07	-2338372.25	8.99831866263412E-05
1	246	90.716029770964	0.726470947265625	0.726470947265625	-6.98242187500001E-07	-5.07252650550072E-07	-1040428.375	8.99321676115505E-05
1	247	90.8167377707098	0.716400146484375	0.716339111328125	-1.1651611328125E-06	-8.34650450087793E-07	-614798.375	8.9838336862158E-05
1	248	90.9174457704555	0.706329345703125	0.706329345703125	-1.68975830078125E-06	-1.19352580441046E-06	-418006.15625	8.9694578491617E-05
1	249	91.0181537702013	0.696258544921875	0.69622802734375	-2.23388671875E-06	-1.55529448875313E-06	-311666.6875	8.94970071385615E-05
1	250	91.118861769947	0.686187744140625	0.686187744140625	-2.74566650390625E-06	-1.88404271739273E-06	-249916.640625	8.92462703632191E-05
1	251	91.2195697696927	0.676116943359375	0.676116943359375	-3.177490234375E-06	-2.14835495171428E-06	-212783.34375	8.89480143086985E-05
1	252	91.3202777694385	0.666046142578125	0.666046142578125	-3.48846435546875E-06	-2.32347815654066E-06	-190928.1875	8.8612359832041E-05
1	253	91.4209857691842	0.655975341796875	0.65594482421875	-3.65509033203125E-06	-2.397537627985E-06	-179460.640625	8.8252651039511E-05
1	254	91.5216937689299	0.645904541015625	0.6458740234375	-3.67767333984375E-06	-2.37531367019983E-06	-175620.28125	8.7883418018464E-05
1	255	91.6224017686757	0.635833740234375	0.6358642578125	-3.58489990234375E-06	-2.27950954467815E-06	-177372.953125	8.75177211128175E-05
1	256	91.7231097684214	0.625762939453125	0.625732421875	-3.411865234375E-06	-2.13491466638516E-06	-183398.921875	8.71654046932235E-05
1	257	91.8238177681671	0.615692138671875	0.615692138671875	-3.19549560546875E-06	-1.96744144886907E-06	-192675.015625	8.68326969793998E-05
1	258	91.9245257679129	0.605621337890625	0.605621337890625	-2.96295166015625E-06	-1.79442668013508E-06	-204397.984375	8.65225956658833E-05
1	259	92.0252337676586	0.595550537109375	0.59552001953125	-2.73406982421875E-06	-1.62819333127118E-06	-217814.5	8.62357264850289E-05
1	260	92.1259417674044	0.585479736328125	0.585479736328125	-2.5177001953125E-06	-1.4740624010301E-06	-232545.46875	8.59712745295838E-05
1	261	92.2266497671501	0.575408935546875	0.575408935546875	-2.31689453125E-06	-1.33316177652887E-06	-248353.53125	8.57278355397284E-05
1	262	92.3273577668958	0.565338134765625	0.565338134765625	-2.13531494140625E-06	-1.20717493246048E-06	-264756.34375	8.55036487337202E-05
1	263	92.4280657666416	0.555267333984375	0.5552978515625	-1.9708251953125E-06	-1.09439497464336E-06	-281759.0625	8.52968878461979E-05
1	264	92.5287737663873	0.545196533203125	0.545196533203125	-1.82281494140625E-06	-9.93792355075129E-07	-299095.9375	8.51058648549952E-05
1	265	92.629481766133	0.535125732421875	0.53509521484375	-1.68975830078125E-06	-9.04181547412009E-07	-316669.6875	8.4928993601352E-05
1	266	92.7301897658788	0.525054931640625	0.525054931640625	-1.57073974609375E-06	-8.24724679659994E-07	-334272.375	8.47648116177879E-05
1	267	92.8308977656245	0.514984130859375	0.5150146484375	-1.46331787109375E-06	-7.53630104100012E-07	-351949.9375	8.46120383357629E-05
1	268	92.9316057653703	0.504913330078125	0.504974365234375	-1.3653564453125E-06	-6.89469970893697E-07	-369848.03125	8.44696041895077E-05
1	269	93.032313765116	0.494842529296875	0.494781494140625	-1.275634765625E-06	-6.31160446573631E-07	-387870.8125	8.43366142362356E-05
1	270	93.1330217648617	0.484771728515625	0.48480224609375	-1.19293212890625E-06	-5.78336198486795E-07	-406395.5	8.42123117763549E-05
1	271	93.2337297646075	0.474700927734375	0.474700927734375	-1.11785888671875E-06	-5.30648662788735E-07	-424651.90625	8.40959546621889E-05
1	272	93.3344377643532	0.464630126953125	0.464691162109375	-1.04888916015625E-06	-4.87409465677047E-07	-443031.75	8.39868516777642E-05
1	273	93.4351457640989	0.454559326171875	0.45458984375	-9.8541259765625E-07	-4.47958569793627E-07	-461319.28125	8.38844207464717E-05
1	274	93.5358537638447	0.444488525390625	0.44451904296875	-9.25598144531251E-07	-4.11445995496251E-07	-480250.59375	8.37881889310665E-05
1	275	93.6365617635904	0.434417724609375	0.4344482421875	-8.70666503906251E-07	-3.78259528588387E-07	-498983.53125	8.36977415019646E-05
1	276	93.7372697633361	0.424346923828125	0.42431640625	-8.1939697265625E-07	-3.47683567269996E-07	-517839.84375	8.36126419017091E-05
1	277	93.8379777630819	0.414276123046875	0.41424560546875	-7.720947265625E-07	-3.19836857443079E-07	-536521.75	8.35325045045465E-05
1	278	93.9386857628276	0.404205322265625	0.404205322265625	-7.27233886718751E-07	-2.93951814001048E-07	-555812	8.34570018923841E-05
1	279	94.0393937625734	0.394134521484375	0.3941650390625	-6.854248046875E-07	-2.70170488647636E-07	-575066.8125	8.33858721307479E-05
1	280	94.1401017623191	0.384063720703125	0.38409423828125	-6.45751953125E-07	-2.48029607519129E-07	-594801.5625	8.33188387332484E-05
1	281	94.2408097620648	0.373992919921875	0.373992919921875	-6.08215332031251E-07	-2.27468220259652E-07	-614902.1875	8.32556979730725E-05
1	282	94.3415177618106	0.363922119140625	0.363922119140625	-5.7342529296875E-07	-2.08682138236327E-07	-634646.125	8.31962024676614E-05
1	283	94.4422257615563	0.353851318359375	0.3538818359375	-5.401611328125E-07	-1.91153205264527E-07	-655141.25	8.31401266623288E-05
1	284	94.542933761302	0.343780517578125	0.343780517578125	-5.09033203125001E-07	-1.74995705037873E-07	-675359.6875	8.30872959340923E-05
1	285	94.6436417610478	0.333709716796875	0.333740234375	-4.79736328125E-07	-1.60107319402414E-07	-695674.25	8.30375065561384E-05
1	286	94.7443497607935	0.323638916015625	0.32366943359375	-4.5196533203125E-07	-1.46287362667863E-07	-716137.75	8.29905911814421E-05
1	287	94.8450577605392	0.313568115234375	0.313568115234375	-4.2572021484375E-07	-1.33492278564518E-07	-736559.1875	8.29463970148936E-05
1	288	94.945765760285	0.303497314453125	0.303497314453125	-4.0130615234375E-07	-1.2179533825929E-07	-756273.75	8.290474943351E-05
1	289	95.0464737600307	0.293426513671875	0.293426513671875	-3.7811279296875E-07	-1.10948313647441E-07	-776029.0625	8.28655029181391E-05
1	290	95.1471817597765	0.283355712890625	0.2833251953125	-3.558349609375E-07	-1.00817004522469E-07	-796226.4375	8.28285483294167E-05
1	291	95.2478897595222	0.273284912109375	0.273284912109375	-3.35083007812501E-07	-9.15731277473242E-08	-815573.8125	8.27937547001056E-05
1	292	95.3485977592679	0.263214111328125	0.26324462890625	-3.14941406249999E-07	-8.29066308938309E-08	-835852.75	8.2761027442757E-05
1	293	95.4493057590137	0.253143310546875	0.253143310546875	-2.95410156250001E-07	-7.47811057522085E-08	-856921.5	8.27302937977947E-05
1	294	95.5500137587594	0.243072509765625	0.243072509765625	-2.77099609375001E-07	-6.73553017804807E-08	-877202.625	8.27014664537273E-05
1	295	95.6507217585051	0.233001708984375	0.233062744140625	-2.5909423828125E-07	-6.03852114977599E-08	-899528.875	8.26744653750211E-05
1	296	95.7514297582509	0.222930908203125	0.22296142578125	-2.41699218749999E-07	-5.38896003376976E-08	-922474.75	8.26492469059303E-05
1	297	95.8521377579966	0.212860107421875	0.212860107421875	-2.2613525390625E-07	-4.81351705161615E-08	-941295.625	8.26256873551756E-05
1	298	95.9528457577424	0.202789306640625	0.20281982421875	-2.11181640624999E-07	-4.28318216449952E-08	-960404.6875	8.26036703074351E-05
1	299	96.0535537574881	0.192718505859375	0.1927490234375	-1.983642578125E-07	-3.8234514221358E-08	-971692.375	8.25830502435565E-05
1	300	96.1542617572338	0.182647705078125	0.182708740234375	-1.87072753906251E-07	-3.41798269687388E-08	-976672.1875	8.25636379886419E-05
1	301	96.2549697569796	0.172576904296875	0.172607421875	-1.788330078125E-07	-3.08679055649463E-08	-965187.75	8.25452152639627E-05
1	302	96.3556777567253	0.162506103515625	0.16253662109375	-1.74560546874999E-07	-2.83724812533137E-08	-931118.9375	8.25274182716385E-05
1	303	96.456385756471	0.152435302734375	0.152496337890625	-1.76086425781249E-07	-2.68525344182535E-08	-866031.25	8.25097595225088E-05
1	304	96.5570937562168	0.142364501953125	0.14239501953125	-1.84020996093751E-07	-2.62036721210279E-08	-773797.6875	8.24916278361343E-05
1	305	96.6578017559625	0.132293701171875	0.13232421875	-2.02026367187499E-07	-2.67329802738914E-08	-654984.9375	8.24721937533468E-05
1	306	96.7585097557082	0.122222900390625	0.122283935546875	-2.33154296875E-07	-2.85110246522891E-08	-524476.4375	8.24502785690129E-05
1	307	96.859217755454	0.112152099609375	0.11212158203125	-2.82897949218749E-07	-3.17189616794167E-08	-396332.28125	8.24242961243726E-05
1	308	96.9599257551997	0.102081298828125	0.102142333984375	-3.56445312500001E-07	-3.64081529369287E-08	-286558.21875	8.23921000119299E-05
1	309	97.0606337549455	0.092010498046875	0.09210205078125	-4.61730957031251E-07	-4.25263664283193E-08	-199471.265625	8.23509035399184E-05
1	310	97.1613417546912	0.081939697265625	0.082000732421875	-6.04858398437499E-07	-4.95988281556947E-08	-135570.140625	8.22971924208105E-05
1	311	97.2620497544369	0.071868896484375	0.07196044921875	-7.9193115234375E-07	-5.69877194322999E-08	-90867.0546875	8.22268630145118E-05
1	312	97.3627577541827	0.061798095703125	0.06182861328125	-1.0198974609375E-06	-6.30588488093053E-08	-60622.3828125	8.21356297819875E-05
1	313	97.4634657539284	0.051727294921875	0.05181884765625	-1.2847900390625E-06	-6.65763337792669E-08	-40332.54296875	8.20195782580413E-05
1	314	97.5641737536741	0.041656494140625	0.0417205810546875	-1.566162109375E-06	-6.53411902362677E-08	-26638.73828125	8.18760163383558E-05
1	315	97.6648817534199	0.031585693359375	0.031689453125	-1.8402099609375E-06	-5.83152477418025E-08	-17220.564453125	8.17044929135591E-05
1	316	97.7655897531656	0.021514892578125	0.0216278076171875	-2.07672119140625E-06	-4.49149268888505E-08	-10414.4013671875	8.15072635305114E-05
1	317	97.8662977529114	0.011444091796875	0.011541748046875	-2.2528076171875E-06	-2.6001336195236E-08	-5123.2734375	8.12892540125176E-05
1	318	97.9670057526571	0.001373291015625	0.00146484375	-2.3583984375E-06	-3.45468520457359E-09	-621.118041992188	8.10570636531338E-05
1	319	98.0677137524028	-0.008697509765625	-0.00859680175781249	-2.39410400390625E-06	2.05816377274459E-08	3590.82250976563	8.08177501312457E-05
1	320	98.1684217521486	-0.018768310546875	-0.01865234375	-2.37396240234375E-06	4.42799645838932E-08	7857.05126953125	8.05776653578505E-05
1	321	98.2691297518943	-0.028839111328125	-0.0287078857421875	-2.31597900390625E-06	6.64868622379799E-08	12395.5732421875	8.03415023256093E-05
1	322	98.36983775164	-0.038909912109375	-0.038763427734375	-2.236328125E-06	8.66877414296141E-08	17333.515625	8.01122805569321E-05
1	323	98.4705457513858	-0.048980712890625	-0.04884033203125	-2.14691162109375E-06	1.04855878646504E-07	22749.11328125	7.98915643827058E-05
1	324	98.5712537511315	-0.059051513671875	-0.0589599609375	-2.056884765625E-06	1.21273842523806E-07	28664.6875	7.96798849478364E-05
1	325	98.6719617508772	-0.069122314453125	-0.069091796875	-1.97052001953125E-06	1.3614675253848E-07	35062.7265625	7.94770894572139E-05
1	326	98.772669750623	-0.079193115234375	-0.079132080078125	-1.890869140625E-06	1.4962840566568E-07	41849.58203125	7.92826540418901E-05
1	327	98.8733777503687	-0.089263916015625	-0.08917236328125	-1.81884765625E-06	1.62190943342466E-07	49026.84765625	7.90958511061035E-05
1	328	98.9740857501145	-0.099334716796875	-0.099273681640625	-1.75506591796875E-06	1.74231857386076E-07	56564.07421875	7.89158948464319E-05
1	329	99.0747937498602	-0.109405517578125	-0.109283447265625	-1.69830322265625E-06	1.85596434221225E-07	64348.609375	7.87419994594529E-05
1	330	99.1755017496059	-0.119476318359375	-0.119415283203125	-1.64947509765625E-06	1.96972536059548E-07	72395.9296875	7.85734300734475E-05
1	331	99.2762097493517	-0.129547119140625	-0.12945556640625	-1.60736083984375E-06	2.08081800678883E-07	80539.2109375	7.84094372647814E-05
1	332	99.3769177490974	-0.139617919921875	-0.13946533203125	-1.57073974609375E-06	2.19063736039971E-07	88789.5859375	7.82494025770575E-05
1	333	99.4776257488431	-0.149688720703125	-0.149505615234375	-1.5411376953125E-06	2.30408730317322E-07	97009.90625	7.80927075538784E-05
1	334	99.5783337485889	-0.159759521484375	-0.15960693359375	-1.51580810546875E-06	2.41933491906821E-07	105294.9453125	7.79387773945928E-05
1	335	99.6790417483346	-0.169830322265625	-0.169677734375	-1.49566650390625E-06	2.5378128043485E-07	113446.2421875	7.77871391619556E-05
1	336	99.7797497480803	-0.179901123046875	-0.17974853515625	-1.48040771484375E-06	2.6610112513481E-07	121418.265625	7.76372835389338E-05
1	337	99.8804577478261	-0.189971923828125	-0.189788818359375	-1.46942138671875E-06	2.78879753068395E-07	129158.8828125	7.74887448642403E-05
1	338	99.9811657475718	-0.200042724609375	-0.19989013671875	-1.46209716796875E-06	2.92258789613697E-07	136714.6875	7.73411302361637E-05
1	339	100.081873747318	-0.189971923828125	-0.189788818359375	-1.28173828125E-06	2.43259592025424E-07	148071.4375	7.7202967077028E-05
2	340	100.182581747063	-0.179901123046875	-0.17974853515625	-1.15264892578125E-06	2.07186957368322E-07	155943.875	7.70803890191019E-05
2	341	100.283289746809	-0.169830322265625	-0.16961669921875	-1.048583984375E-06	1.77857344851873E-07	161757.859375	7.69695470808074E-05
2	342	100.383997746555	-0.159759521484375	-0.15960693359375	-9.6038818359375E-07	1.53284616999372E-07	166190.015625	7.68683894420974E-05
2	343	100.484705746301	-0.149688720703125	-0.1495361328125	-8.84094238281249E-07	1.32204036162875E-07	169140.5	7.67755118431523E-05
2	344	100.585413746046	-0.139617919921875	-0.1395263671875	-8.160400390625E-07	1.13859101702474E-07	170979.8125	7.66899029258639E-05
2	345	100.686121745792	-0.129547119140625	-0.12945556640625	-7.5408935546875E-07	9.76210614567208E-08	171671.390625	7.66108423704281E-05
2	346	100.786829745538	-0.119476318359375	-0.11932373046875	-6.96716308593751E-07	8.31347861662834E-08	171265.875	7.65377844800241E-05
2	347	100.887537745283	-0.109405517578125	-0.109222412109375	-6.43310546875001E-07	7.02639297855967E-08	169781.78125	7.64703072491102E-05
2	348	100.988245745029	-0.099334716796875	-0.099273681640625	-5.9112548828125E-07	5.86831987448022E-08	167940.125	7.64081487432122E-05
2	349	101.088953744775	-0.089263916015625	-0.089141845703125	-5.3863525390625E-07	4.80149360271298E-08	165495.765625	7.63512653065845E-05
2	350	101.189661744521	-0.079193115234375	-0.079193115234375	-4.84313964843749E-07	3.83543294901756E-08	163516.078125	7.62997515266761E-05
2	351	101.290369744266	-0.069122314453125	-0.069061279296875	-4.2449951171875E-07	2.93164781339783E-08	162688.71875	7.62539930292405E-05
2	352	101.391077744012	-0.059051513671875	-0.058990478515625	-3.56445312500001E-07	2.10268780165279E-08	165496.578125	7.62146664783359E-05
2	353	101.491785743758	-0.048980712890625	-0.0488311767578125	-2.75268554687499E-07	1.34416868746712E-08	177394.6875	7.61828559916466E-05
2	354	101.592493743504	-0.038909912109375	-0.0387603759765625	-1.739501953125E-07	6.74237421449675E-09	222824.578125	7.61602423153818E-05
2	355	101.693201743249	-0.028839111328125	-0.0287017822265625	-4.57763671875E-08	1.31386335144867E-09	627000	7.61491755838506E-05
2	356	101.793909742995	-0.018768310546875	-0.018670654296875	1.16882324218751E-07	-2.18226925419174E-09	-159738.90625	7.61527553549968E-05
2	357	101.894617742741	-0.008697509765625	-0.00861511230468751	3.19824218750001E-07	-2.75532130444844E-09	-26937.0234375	7.61747432989068E-05
2	358	101.995325742487	0.001373291015625	0.001483154296875	5.657958984375E-07	8.39162517252134E-10	2621.359375	7.62193376431242E-05
2	359	102.096033742232	0.011444091796875	0.0115631103515625	8.49609375E-07	9.82412640126995E-09	13609.9140625	7.62906129239127E-05
2	360	102.196741741978	0.021514892578125	0.02161865234375	1.1566162109375E-06	2.50044855931719E-08	18691.29296875	7.6391632319428E-05
2	361	102.297449741724	0.031585693359375	0.0317169189453125	1.4605712890625E-06	4.63248248649961E-08	21715.419921875	7.65234217396937E-05
2	362	102.39815774147	0.041656494140625	0.0417572021484375	1.73370361328125E-06	7.23946129710384E-08	24085.548828125	7.66842640587129E-05
2	363	102.498865741215	0.051727294921875	0.0517578125	1.94976806640625E-06	1.00915720224748E-07	26545.626953125	7.68697427702136E-05
2	364	102.599573740961	0.061798095703125	0.06182861328125	2.09320068359375E-06	1.29419689187671E-07	29537.833984375	7.70733167883009E-05
2	365	102.700281740707	0.071868896484375	0.071929931640625	2.161865234375E-06	1.55502817733577E-07	33272.16015625	7.72875791881233E-05
2	366	102.800989740452	0.081939697265625	0.082000732421875	2.16949462890625E-06	1.77900147946275E-07	37797.16015625	7.75056832935661E-05
2	367	102.901697740198	0.092010498046875	0.092071533203125	2.13165283203125E-06	1.96264537066781E-07	43192.55859375	7.77222594479099E-05
2	368	103.002405739944	0.102081298828125	0.102142333984375	2.06634521484375E-06	2.11061319532746E-07	49431.40234375	7.79336478444748E-05
2	369	103.10311373969	0.112152099609375	0.112213134765625	1.9879150390625E-06	2.23070188098973E-07	56447.6484375	7.81377966632135E-05
2	370	103.203821739435	0.122222900390625	0.122283935546875	1.9061279296875E-06	2.33088812251481E-07	64153.05859375	7.83338764449582E-05
2	371	103.304529739181	0.132293701171875	0.13232421875	1.8267822265625E-06	2.41727519778578E-07	72435.6875	7.8521843533963E-05
2	372	103.405237738927	0.142364501953125	0.142425537109375	1.75323486328125E-06	2.49705408350565E-07	81235.859375	7.8702112659812E-05
2	373	103.505945738673	0.152435302734375	0.152435302734375	1.68609619140625E-06	2.57020587923762E-07	90407.2421875	7.88752950029448E-05
2	374	103.606653738418	0.162506103515625	0.16253662109375	1.62628173828125E-06	2.64330338950458E-07	99943.7109375	7.90420890552923E-05
2	375	103.707361738164	0.172576904296875	0.172607421875	1.57318115234375E-06	2.71542717200646E-07	109718.7265625	7.92031933087856E-05
2	376	103.80806973791	0.182647705078125	0.182708740234375	1.5264892578125E-06	2.78902916761581E-07	119692.125	7.93592698755674E-05
2	377	103.908777737656	0.192718505859375	0.192779541015625	1.48529052734375E-06	2.86333602161903E-07	129792.484375	7.95109299360774E-05
2	378	104.009485737401	0.202789306640625	0.202850341796875	1.44927978515625E-06	2.93986886390485E-07	139966.3125	7.96586973592639E-05
2	379	104.110193737147	0.212860107421875	0.212921142578125	1.41632080078125E-06	3.015646257154E-07	150333.984375	7.98029868747108E-05
2	380	104.210901736893	0.222930908203125	0.222900390625	1.38824462890625E-06	3.09440281398565E-07	160562.765625	7.99442132120021E-05
2	381	104.311609736639	0.233001708984375	0.2330322265625	1.3629150390625E-06	3.17603110033815E-07	170980.75	8.00827401690185E-05
2	382	104.412317736384	0.243072509765625	0.2430419921875	1.3409423828125E-06	3.25905318732111E-07	181247.15625	8.02188951638527E-05
2	383	104.51302573613	0.253143310546875	0.25311279296875	1.32049560546875E-06	3.34234329102401E-07	191680.15625	8.03529037511908E-05
2	384	104.613733735876	0.263214111328125	0.26324462890625	1.30340576171875E-06	3.43114550105383E-07	201966.765625	8.04850278655067E-05
2	385	104.714441735621	0.273284912109375	0.273284912109375	1.28692626953125E-06	3.51697536871143E-07	212354.765625	8.06154639576562E-05
2	386	104.815149735367	0.283355712890625	0.283355712890625	1.2725830078125E-06	3.60593645609697E-07	222661.875	8.07443429948762E-05
2	387	104.915857735113	0.293426513671875	0.29339599609375	1.26068115234375E-06	3.69878790706935E-07	232728.171875	8.08719050837681E-05
2	388	105.016565734859	0.303497314453125	0.303497314453125	1.24969482421875E-06	3.79279015305656E-07	242857.140625	8.09983102953993E-05
2	389	105.117273734604	0.313568115234375	0.3135986328125	1.24053955078125E-06	3.89031498571057E-07	252792.140625	8.11237041489221E-05
2	390	105.21798173435	0.323638916015625	0.32366943359375	1.23199462890625E-06	3.9875899915387E-07	262719.84375	8.1248210335616E-05
2	391	105.318689734096	0.333709716796875	0.333740234375	1.2249755859375E-06	4.08823638053946E-07	272446.4375	8.137192344293E-05
2	392	105.419397733842	0.343780517578125	0.34381103515625	1.21826171875E-06	4.18851811900822E-07	282214.4375	8.14949526102282E-05
2	393	105.520105733587	0.353851318359375	0.35382080078125	1.21307373046875E-06	4.29210700758631E-07	291672.96875	8.16173778730445E-05
2	394	105.620813733333	0.363922119140625	0.364013671875	1.20941162109375E-06	4.40242359900367E-07	300984.09375	8.17393593024462E-05
2	395	105.721521733079	0.373992919921875	0.37396240234375	1.2060546875E-06	4.51019104730221E-07	310070.84375	8.18609914858826E-05
2	396	105.822229732825	0.384063720703125	0.384033203125	1.20391845703125E-06	4.62344615925758E-07	318986.09375	8.19823399069719E-05
2	397	105.92293773257	0.394134521484375	0.394195556640625	1.202392578125E-06	4.73977820547589E-07	327842.625	8.21035137050785E-05
2	398	106.023645732316	0.404205322265625	0.404296875	1.202392578125E-06	4.86123553855577E-07	336243.65625	8.22246001916938E-05
2	399	106.124353732062	0.414276123046875	0.414276123046875	1.20269775390625E-06	4.98248937219614E-07	344455.71875	8.23457085061818E-05
2	400	106.225061731808	0.424346923828125	0.424346923828125	1.20361328125E-06	5.1074960083497E-07	352560.875	8.24668750283308E-05
2	401	106.325769731553	0.434417724609375	0.434417724609375	1.2060546875E-06	5.23931532825372E-07	360197.375	8.2588208897505E-05
2	402	106.426477731299	0.444488525390625	0.44451904296875	1.20849609375E-06	5.3719952575193E-07	367828.28125	8.2709790149238E-05
2	403	106.527185731045	0.454559326171875	0.45452880859375	1.2115478515625E-06	5.50683353139902E-07	375163.75	8.28316551633179E-05
2	404	106.62789373079	0.464630126953125	0.464599609375	1.21612548828125E-06	5.65011418984795E-07	382032.625	8.29538912512362E-05
2	405	106.728601730536	0.474700927734375	0.47467041015625	1.22161865234375E-06	5.79866195948853E-07	388558.59375	8.30766439321451E-05
2	406	106.829309730282	0.484771728515625	0.484771728515625	1.2286376953125E-06	5.95608810272097E-07	394560.375	8.32000223454088E-05
2	407	106.930017730028	0.494842529296875	0.494842529296875	1.23748779296875E-06	6.12361532148498E-07	399876.71875	8.33242011140101E-05
2	408	107.030725729773	0.504913330078125	0.5048828125	1.24725341796875E-06	6.29716794264823E-07	404795.6875	8.34493184811436E-05
2	409	107.131433729519	0.514984130859375	0.5150146484375	1.2603759765625E-06	6.49112052997225E-07	408619.875	8.35755927255377E-05
2	410	107.232141729265	0.525054931640625	0.525054931640625	1.27655029296875E-06	6.70258998525242E-07	411307.6875	8.37033367133699E-05
2	411	107.332849729011	0.535125732421875	0.53509521484375	1.2969970703125E-06	6.94016932811792E-07	412564.6875	8.38329215184785E-05
2	412	107.433557728756	0.545196533203125	0.545135498046875	1.3238525390625E-06	7.2167898679254E-07	411779.625	8.39648928376846E-05
2	413	107.534265728502	0.555267333984375	0.55523681640625	1.3592529296875E-06	7.54707230044005E-07	408486.75	8.41000000946224E-05
2	414	107.634973728248	0.565338134765625	0.5653076171875	1.405029296875E-06	7.94273717019678E-07	402345.8125	8.42391891637817E-05
2	415	107.735681727994	0.575408935546875	0.57537841796875	1.466064453125E-06	8.43541840822581E-07	392464.625	8.43837624415755E-05
2	416	107.836389727739	0.585479736328125	0.585479736328125	1.54693603515625E-06	9.05699664599524E-07	378477.03125	8.45354807097465E-05
2	417	107.937097727485	0.595550537109375	0.595550537109375	1.65557861328125E-06	9.85980705081602E-07	359723.5	8.46967377583496E-05
2	418	108.037805727231	0.605621337890625	0.605621337890625	1.79779052734375E-06	1.08878020910197E-06	336869.8125	8.4870625869371E-05
2	419	108.138513726976	0.615692138671875	0.615631103515625	1.98699951171875E-06	1.2232586641403E-06	309829.53125	8.50612050271593E-05
2	420	108.239221726722	0.625762939453125	0.62579345703125	2.23358154296875E-06	1.39776068408537E-06	280174.90625	8.5273728473112E-05
2	421	108.339929726468	0.635833740234375	0.63580322265625	2.54852294921875E-06	1.62035905759694E-06	249479.109375	8.55145262903534E-05
2	422	108.440637726214	0.645904541015625	0.6458740234375	2.94403076171875E-06	1.90147295597853E-06	219384.265625	8.57910999911837E-05
2	423	108.541345725959	0.655975341796875	0.655975341796875	3.42010498046875E-06	2.24350446842436E-06	191799.78125	8.61115622683428E-05
2	424	108.642053725705	0.666046142578125	0.665924072265625	3.973388671875E-06	2.6459752007213E-06	167596.015625	8.64838511915877E-05
2	425	108.742761725451	0.676116943359375	0.676055908203125	4.5782470703125E-06	3.0951509870647E-06	147666.96875	8.6914464191068E-05
2	426	108.843469725197	0.686187744140625	0.686065673828125	5.2001953125E-06	3.56767532139202E-06	131930.75	8.7406842794735E-05
2	427	108.944177724942	0.696258544921875	0.696075439453125	5.792236328125E-06	4.03183321395773E-06	120173.8671875	8.7960361270234E-05
2	428	109.044885724688	0.706329345703125	0.7061767578125	6.3079833984375E-06	4.4545513446792E-06	111949.6875	8.85696499608457E-05
2	429	109.145593724434	0.716400146484375	0.716278076171875	6.6986083984375E-06	4.79806612929679E-06	106929.390625	8.92245880095288E-05
2	430	109.24630172418	0.726470947265625	0.726348876953125	6.9427490234375E-06	5.04285799252102E-06	104619.78125	8.99114820640534E-05
2	431	109.347009723925	0.736541748046875	0.736358642578125	7.0343017578125E-06	5.17976877745241E-06	104681.1328125	9.06152854440734E-05
2	432	109.447717723671	0.746612548828125	0.746429443359375	7.0037841796875E-06	5.22783057022025E-06	106575.1640625	9.13221592782065E-05
2	433	109.548425723417	0.756683349609375	0.7568359375	6.884765625E-06	5.21063793712528E-06	109929.0859375	9.2021502496209E-05
2	434	109.649133723163	0.766754150390625	0.7672119140625	6.7230224609375E-06	5.15798274136614E-06	114117.1171875	9.27067085285671E-05
2	435	109.749841722908	0.776824951171875	0.77728271484375	6.5521240234375E-06	5.09285291627748E-06	118630.6484375	9.33751653064974E-05
2	436	109.850549722654	0.786895751953125	0.78704833984375	6.3995361328125E-06	5.03674391438835E-06	122985.2265625	9.40273312153295E-05
2	437	109.9512577224	0.796966552734375	0.797119140625	6.280517578125E-06	5.0063208618667E-06	126919.34375	9.46658255998045E-05
2	438	110.051965722145	0.807037353515625	0.80657958984375	6.207275390625E-06	5.00666146763251E-06	129941	9.52946356846951E-05
2	439	110.152673721891	0.817108154296875	0.81695556640625	6.18896484375E-06	5.0561088755785E-06	132001.984375	9.59188328124583E-05
2	440	110.253381721637	0.827178955078125	0.82733154296875	6.231689453125E-06	5.15567307957099E-06	132762	9.65442668530159E-05
2	441	110.354089721383	0.837249755859375	0.83740234375	6.329345703125E-06	5.30020861333469E-06	132304.734375	9.71767658484168E-05
2	442	110.454797721128	0.847320556640625	0.84747314453125	6.463623046875E-06	5.47774698134162E-06	131114.265625	9.78209427557886E-05
2	443	110.555505720874	0.857391357421875	0.85723876953125	6.6162109375E-06	5.67167217013775E-06	129566.4296875	9.84795624390244E-05
2	444	110.65621372062	0.867462158203125	0.8673095703125	6.7596435546875E-06	5.86270334679284E-06	128307	9.91530905594118E-05
2	445	110.756921720366	0.877532958984375	0.877685546875	6.866455078125E-06	6.02658838033676E-06	127822.2265625	9.98392206383869E-05
2	446	110.857629720111	0.887603759765625	0.8880615234375	6.92138671875E-06	6.14661712461384E-06	128306.8828125	0.000100533492513932
2	447	110.958337719857	0.897674560546875	0.89752197265625	6.92138671875E-06	6.21209665041533E-06	129673.7265625	0.000101230529253371
2	448	111.059045719603	0.907745361328125	0.9075927734375	6.8756103515625E-06	6.24025415163487E-06	132001.78125	0.000101925266790204
2	449	111.159753719349	0.917816162109375	0.91796875	6.7962646484375E-06	6.23875848759781E-06	135069.59375	0.000102613696071785
2	450	111.260461719094	0.927886962890625	0.92803955078125	6.7047119140625E-06	6.2222375163401E-06	138416.03125	0.000103293525171466
2	451	111.36116971884	0.937957763671875	0.93780517578125	6.622314453125E-06	6.2104404605634E-06	141612.90625	0.00010396459401818
2	452	111.461877718586	0.948028564453125	0.94818115234375	6.55517578125E-06	6.21549406787381E-06	144646.1875	0.000104628132248763
2	453	111.562585718332	0.958099365234375	0.95794677734375	6.5216064453125E-06	6.24735184828751E-06	146888.15625	0.000105286606412847
2	454	111.663293718077	0.968170166015625	0.96832275390625	6.5338134765625E-06	6.32683986623306E-06	148201.78125	0.000105943996459246
2	455	111.764001717823	0.978240966796875	0.97808837890625	6.5948486328125E-06	6.45034469926031E-06	148310.96875	0.000106605075416155
2	456	111.864709717569	0.988311767578125	0.98846435546875	6.7108154296875E-06	6.63340188111761E-06	147294.234375	0.000107275067421142
2	457	111.965417717314	0.998382568359375	0.99853515625	6.8756103515625E-06	6.86553858031402E-06	145228.578125	0.000107959203887731
2	458	112.06612571706	1.00845336914063	1.00860595703125	7.073974609375E-06	7.13485269443481E-06	142579.8125	0.000108661617559846
2	459	112.166833716806	1.01852416992188	1.0186767578125	7.2845458984375E-06	7.42059728509048E-06	139840.8125	0.000109384629467968
2	460	112.267541716552	1.02859497070313	1.0284423828125	7.476806640625E-06	7.6894648373127E-06	137551.03125	0.00011012791946996
2	461	112.368249716297	1.03866577148438	1.03851318359375	7.623291015625E-06	7.91688853496453E-06	136228.984375	0.000110888271592557
2	462	112.468957716043	1.04873657226563	1.04888916015625	7.7056884765625E-06	8.08241293270839E-06	136118.8125	0.000111660148832016
2	463	112.569665715789	1.05880737304688	1.05865478515625	7.720947265625E-06	8.17381715023657E-06	137114.625	0.000112436937342864
2	464	112.670373715535	1.06887817382813	1.06903076171875	7.672119140625E-06	8.20173136162339E-06	139339.703125	0.000113212037831545
2	465	112.77108171528	1.07894897460938	1.07879638671875	7.5775146484375E-06	8.17459567770129E-06	142368.109375	0.000113979920570273
2	466	112.871789715026	1.08901977539063	1.08917236328125	7.4554443359375E-06	8.12026337371208E-06	146090.875	0.00011473688937258
2	467	112.972497714772	1.09909057617188	1.09893798828125	7.318115234375E-06	8.04215414973442E-06	150166.8125	0.000115480797830969
2	468	113.073205714518	1.10916137695313	1.1090087890625	7.1807861328125E-06	7.9635547081125E-06	154441.140625	0.000116210874693934
2	469	113.173913714263	1.11923217773438	1.11907958984375	7.0465087890625E-06	7.88560373621294E-06	158813.34375	0.000116927280032542
2	470	113.274621714009	1.12930297851563	1.12945556640625	6.92138671875E-06	7.81739890953759E-06	163183.421875	0.000117630617751274
2	471	113.375329713755	1.13937377929688	1.1395263671875	6.8084716796875E-06	7.75843273004284E-06	167368.90625	0.000118321971967816
2	472	113.476037713501	1.14944458007813	1.14959716796875	6.70166015625E-06	7.70420956541784E-06	171539.171875	0.000119002259452827
2	473	113.576745713246	1.15951538085938	1.15936279296875	6.6070556640625E-06	7.65997447160771E-06	175473.4375	0.000119672404252924
2	474	113.677453712992	1.16958618164063	1.16973876953125	6.5185546875E-06	7.62500576456659E-06	179447.5625	0.000120333330414724
2	475	113.778161712738	1.17965698242188	1.17950439453125	6.439208984375E-06	7.59507520342595E-06	183175.359375	0.000120985809189733
2	476	113.878869712483	1.18972778320313	1.190185546875	6.3690185546875E-06	7.58031364966882E-06	186871.109375	0.000121630757348612
2	477	113.979577712229	1.19979858398438	1.19964599609375	6.304931640625E-06	7.56368581278366E-06	190271.0625	0.000122268931590952
2	478	114.080285711975	1.20986938476563	1.20941162109375	6.25E-06	7.55882228986593E-06	193505.859375	0.000122901124996133
2	479	114.180993711721	1.21994018554688	1.2200927734375	6.195068359375E-06	7.55855808165506E-06	196945.8125	0.000123527788673528
2	480	114.281701711466	1.23001098632813	1.23016357421875	6.1492919921875E-06	7.56463487050496E-06	200049.625	0.000124149373732507
2	481	114.382409711212	1.24008178710938	1.23992919921875	6.1065673828125E-06	7.57171073928475E-06	203048.484375	0.000124766505905427
2	482	114.483117710958	1.25015258789063	1.2506103515625	6.06689453125E-06	7.58732085159863E-06	206136.828125	0.000125379490782507
2	483	114.583825710704	1.26022338867188	1.26007080078125	6.0333251953125E-06	7.60241664465866E-06	208851.796875	0.000125988779473118
2	484	114.684533710449	1.27029418945313	1.27044677734375	6.0028076171875E-06	7.62624722483451E-06	211642.109375	0.000126594852190465
2	485	114.785241710195	1.28036499023438	1.28021240234375	5.975341796875E-06	7.64970627642469E-06	214249.25	0.00012719799997285
2	486	114.885949709941	1.29043579101563	1.29058837890625	5.9539794921875E-06	7.68413610785501E-06	216760.640625	0.000127798688481562
2	487	114.986657709687	1.30050659179688	1.30096435546875	5.9326171875E-06	7.71812301536556E-06	219290.125	0.00012839722330682
2	488	115.087365709432	1.31057739257813	1.31072998046875	5.9173583984375E-06	7.75605894887121E-06	221505.9375	0.000128993924590759
2	489	115.188073709178	1.32064819335938	1.3214111328125	5.9051513671875E-06	7.80313257564558E-06	223772.609375	0.000129589228890836
2	490	115.288781708924	1.33071899414063	1.33056640625	5.89599609375E-06	7.84501389716752E-06	225672.890625	0.000130183470901102
2	491	115.38948970867	1.34078979492188	1.34063720703125	5.8929443359375E-06	7.90030026109889E-06	227498.71875	0.000130777087179013
2	492	115.490197708415	1.35086059570313	1.35040283203125	5.889892578125E-06	7.95372670836514E-06	229274.625	0.000131370397866704
2	493	115.590905708161	1.36093139648438	1.361083984375	5.889892578125E-06	8.01663827587618E-06	231088.09375	0.000131963563035242
2	494	115.691613707907	1.37100219726563	1.370849609375	5.8929443359375E-06	8.07834021543385E-06	232625.59375	0.000132556873722933
2	495	115.792321707652	1.38107299804688	1.3812255859375	5.89599609375E-06	8.14370014268206E-06	234265.015625	0.000133150490000844
2	496	115.893029707398	1.39114379882813	1.3916015625	5.902099609375E-06	8.21337107481668E-06	235780.765625	0.000133744571940042
2	497	115.993737707144	1.40121459960938	1.4013671875	5.9112548828125E-06	8.28383872431004E-06	237067.625	0.000134339425130747
2	498	116.09444570689	1.41128540039063	1.41143798828125	5.92041015625E-06	8.35629180073738E-06	238402.078125	0.000134935195092112
2	499	116.195153706635	1.42135620117188	1.4208984375	5.9326171875E-06	8.42964618641417E-06	239506.171875	0.000135532041895203
2	500	116.295861706381	1.43142700195313	1.431884765625	5.94482421875E-06	8.5123028839007E-06	240862.4375	0.000136130111059174
2	501	116.396569706127	1.44149780273438	1.4410400390625	5.9600830078125E-06	8.58871771924896E-06	241781.875	0.000136729577207007
2	502	116.497277705873	1.45156860351563	1.45172119140625	5.975341796875E-06	8.67453036335064E-06	242952	0.000137330571305938
2	503	116.597985705618	1.46163940429688	1.461181640625	5.99365234375E-06	8.75781461218139E-06	243788.1875	0.000137933253427036
2	504	116.698693705364	1.47171020507813	1.4715576171875	6.01806640625E-06	8.85593181010336E-06	244523.328125	0.000138538103783503
2	505	116.79940170511	1.48178100585938	1.48162841796875	6.048583984375E-06	8.96175424713874E-06	244954.59375	0.000139145704451948
2	506	116.900109704856	1.49185180664063	1.49169921875	6.0882568359375E-06	9.08184756553965E-06	245012.53125	0.000139756841235794
2	507	117.000817704601	1.50192260742188	1.50177001953125	6.1370849609375E-06	9.21649007068481E-06	244704.140625	0.0001403724309057
2	508	117.101525704347	1.49185180664063	1.49200439453125	5.8868408203125E-06	8.78319224284496E-06	253447.375	0.000140977892442606
2	509	117.202233704093	1.48178100585938	1.48193359375	5.706787109375E-06	8.45707927510375E-06	259679.15625	0.000141561671625823
2	510	117.302941703839	1.47171020507813	1.4715576171875	5.56640625E-06	8.19128672446823E-06	264364.0625	0.000142129327286966
2	511	117.403649703584	1.46163940429688	1.4617919921875	5.4473876953125E-06	7.96294716565171E-06	268347.34375	0.000142683915328234
2	512	117.50435770333	1.45156860351563	1.45111083984375	5.3497314453125E-06	7.76305296312785E-06	271249.28125	0.000143227589433081
2	513	117.605065703076	1.44149780273438	1.4422607421875	5.2642822265625E-06	7.59246768211597E-06	273971	0.000143762052175589
2	514	117.705773702821	1.43142700195313	1.431884765625	5.1910400390625E-06	7.43297050576075E-06	275837.75	0.000144288511364721
2	515	117.806481702567	1.42135620117188	1.42120361328125	5.126953125E-06	7.28644408809487E-06	277202.375	0.000144808072946034
2	516	117.907189702313	1.41128540039063	1.41082763671875	5.0689697265625E-06	7.1514423325425E-06	278326.3125	0.000145321479067206
2	517	118.007897702059	1.40121459960938	1.40106201171875	5.0140380859375E-06	7.02497800375568E-06	279427.875	0.000145829195389524
2	518	118.108605701804	1.39114379882813	1.3916015625	4.967041015625E-06	6.91214154358022E-06	280167.125	0.000146331774885766
2	519	118.20931370155	1.38107299804688	1.3812255859375	4.92462158203125E-06	6.80201310387929E-06	280473.46875	0.000146829872392118
2	520	118.310021701296	1.37100219726563	1.37054443359375	4.8858642578125E-06	6.69629389449256E-06	280512.1875	0.000147323866258375
2	521	118.410729701042	1.36093139648438	1.361083984375	4.85015869140625E-06	6.60147270536982E-06	280626.71875	0.000147814105730504
2	522	118.511437700787	1.35086059570313	1.3507080078125	4.8175048828125E-06	6.50704214422149E-06	280375.03125	0.000148300910950638
2	523	118.612145700533	1.34078979492188	1.3409423828125	4.7869873046875E-06	6.41907399767661E-06	280122.40625	0.000148784543853253
2	524	118.712853700279	1.33071899414063	1.33056640625	4.75830078125E-06	6.33123499937938E-06	279630.59375	0.000149265179061331
2	525	118.813561700025	1.32064819335938	1.32080078125	4.7320556640625E-06	6.25010261501302E-06	279117.78125	0.00014974306395743
2	526	118.91426969977	1.31057739257813	1.31072998046875	4.70611572265625E-06	6.16844681644579E-06	278516.3125	0.000150218314956874
2	527	119.014977699516	1.30050659179688	1.30096435546875	4.6826171875E-06	6.09191783951246E-06	277828.46875	0.000150691077578813
2	528	119.115685699262	1.29043579101563	1.28997802734375	4.65911865234375E-06	6.01016063228599E-06	276871.6875	0.00015116146823857
2	529	119.216393699008	1.28036499023438	1.280517578125	4.637451171875E-06	5.93833783568698E-06	276125.28125	0.000151629588799551
2	530	119.317101698753	1.27029418945313	1.27044677734375	4.61639404296875E-06	5.86488295084564E-06	275203.28125	0.000152095555677079
2	531	119.417809698499	1.26022338867188	1.2603759765625	4.59625244140625E-06	5.79300603931188E-06	274218.1875	0.000152559441630729
2	532	119.518517698245	1.25015258789063	1.25030517578125	4.57733154296875E-06	5.72306089452468E-06	273151.5625	0.000153021377627738
2	533	119.61922569799	1.24008178710938	1.2396240234375	4.5587158203125E-06	5.65109348826809E-06	271923.96875	0.000153481407323852
2	534	119.719933697736	1.23001098632813	1.2298583984375	4.541015625E-06	5.58480633117142E-06	270833.34375	0.000153939618030563
2	535	119.820641697482	1.21994018554688	1.21978759765625	4.5233154296875E-06	5.51748416910414E-06	269666.71875	0.000154396038851701
2	536	119.921349697228	1.20986938476563	1.2103271484375	4.50653076171875E-06	5.45437660548487E-06	268571.8125	0.000154850727994926
2	537	120.022057696973	1.19979858398438	1.199951171875	4.48974609375E-06	5.38747599421185E-06	267264.8125	0.000155303729115985
2	538	120.122765696719	1.18972778320313	1.18988037109375	4.47235107421875E-06	5.32156263943762E-06	266052.53125	0.000155755013111047
2	539	120.223473696465	1.17965698242188	1.17950439453125	4.4549560546875E-06	5.25464020029176E-06	264762.28125	0.000156204536324367
2	540	120.324181696211	1.16958618164063	1.17034912109375	4.4366455078125E-06	5.19242394148023E-06	263791.46875	0.000156652255100198
2	541	120.424889695956	1.15951538085938	1.15936279296875	4.41619873046875E-06	5.1199763220211E-06	262525.0625	0.000157098038471304
2	542	120.525597695702	1.14944458007813	1.14990234375	4.39239501953125E-06	5.0508256208559E-06	261793.921875	0.000157541580847465
2	543	120.626305695448	1.13937377929688	1.1395263671875	4.3646240234375E-06	4.97360360895982E-06	261082.390625	0.000157982532982714
2	544	120.727013695194	1.12930297851563	1.1297607421875	4.3304443359375E-06	4.89236617795541E-06	260887.9375	0.000158420371008106
2	545	120.827721694939	1.11923217773438	1.11968994140625	4.28741455078125E-06	4.80057497043163E-06	261157.390625	0.000158854309120215
2	546	120.928429694685	1.10916137695313	1.10870361328125	4.23065185546875E-06	4.69053929919028E-06	262064.484375	0.000159283226821572
2	547	121.029137694431	1.09909057617188	1.09893798828125	4.15557861328125E-06	4.56672341897502E-06	264448.84375	0.000159705508849584
2	548	121.129845694177	1.08901977539063	1.0888671875	4.05548095703125E-06	4.41588008470717E-06	268492.75	0.000160118972416967
2	549	121.230553693922	1.07894897460938	1.0791015625	3.92242431640625E-06	4.23269420934957E-06	275110.875	0.000160520692588761
2	550	121.331261693668	1.06887817382813	1.0687255859375	3.74908447265625E-06	4.00674207412521E-06	285063.09375	0.000160906987730414
2	551	121.431969693414	1.05880737304688	1.05926513671875	3.5302734375E-06	3.73949546883523E-06	300051.875	0.000161273521371186
2	552	121.532677693159	1.04873657226563	1.04827880859375	3.26507568359375E-06	3.4227093692607E-06	321058.0625	0.000161615695105866
2	553	121.633385692905	1.03866577148438	1.038818359375	2.96478271484375E-06	3.07987056658021E-06	350386	0.000161929390742444
2	554	121.734093692651	1.02859497070313	1.02813720703125	2.646484375E-06	2.7209489417146E-06	388491.71875	0.000162211945280433
2	555	121.834801692397	1.01852416992188	1.01837158203125	2.337646484375E-06	2.38059283219627E-06	435639.6875	0.000162462922162376
2	556	121.935509692142	1.00845336914063	1.0089111328125	2.0672607421875E-06	2.08568235393614E-06	488042.5	0.000162684722454287
2	557	122.036217691888	0.998382568359375	0.99853515625	1.86370849609375E-06	1.86097838650312E-06	535778.625	0.000162882657605223
2	558	122.136925691634	0.988311767578125	0.98876953125	1.73919677734375E-06	1.71966473772045E-06	568520.8125	0.000163064076332375
2	559	122.23763369138	0.978240966796875	0.9783935546875	1.6937255859375E-06	1.6571301557633E-06	577657.6875	0.000163236938533373
2	560	122.338341691125	0.968170166015625	0.968017578125	1.70989990234375E-06	1.6552130546188E-06	566125.3125	0.000163408330990933
2	561	122.439049690871	0.958099365234375	0.958251953125	1.759033203125E-06	1.68559688518144E-06	544760.625	0.000163582997629419
2	562	122.539757690617	0.948028564453125	0.94818115234375	1.8133544921875E-06	1.71938847870479E-06	522887.9375	0.000163762888405472
2	563	122.640465690363	0.937957763671875	0.9381103515625	1.85394287109375E-06	1.73920295765129E-06	506008.21875	0.00016394755220972
2	564	122.741173690108	0.927886962890625	0.927734375	1.86676025390625E-06	1.73185753737926E-06	496975.65625	0.000164134908118285
2	565	122.841881689854	0.917816162109375	0.91796875	1.844482421875E-06	1.6931771824602E-06	497683.65625	0.000164321783813648
2	566	122.9425896896	0.907745361328125	0.908203125	1.7755126953125E-06	1.61252614816476E-06	511516	0.000164504061103798
2	567	123.043297689346	0.897674560546875	0.89813232421875	1.65374755859375E-06	1.48528408772108E-06	543089.125	0.000164676734129898
2	568	123.144005689091	0.887603759765625	0.8880615234375	1.4794921875E-06	1.31388014779077E-06	600247.5	0.000164834505994804
2	569	123.244713688837	0.877532958984375	0.87738037109375	1.25732421875E-06	1.10315158963203E-06	697815.5	0.000164972312632017
2	570	123.345421688583	0.867462158203125	0.867919921875	1.0028076171875E-06	8.70356700488628E-07	865489.9375	0.000165086123161018
2	571	123.446129688328	0.857391357421875	0.85784912109375	7.4005126953125E-07	6.34852312941803E-07	1159175.375	0.00016517388576176
2	572	123.546837688074	0.847320556640625	0.8477783203125	4.99877929687501E-07	4.23785650127684E-07	1695970.75	0.000165236328030005
2	573	123.64754568782	0.837249755859375	0.83770751953125	3.06091308593751E-07	2.56414978139219E-07	2736789.75	0.000165276898769662
2	574	123.748253687566	0.827178955078125	0.82733154296875	1.7669677734375E-07	1.46186806659898E-07	4682211	0.000165301215020008
2	575	123.848961687311	0.817108154296875	0.81756591796875	1.13525390624999E-07	9.28144885392612E-08	7201613	0.000165315825142898
2	576	123.949669687057	0.807037353515625	0.806884765625	1.08642578125E-07	8.76620376288884E-08	7426966.5	0.000165327015565708
2	577	124.050377686803	0.796966552734375	0.79742431640625	1.41296386718751E-07	1.12673170349353E-07	5643628.5	0.000165339602972381
2	578	124.151085686549	0.786895751953125	0.787353515625	1.88598632812501E-07	1.48493796814364E-07	4174757.25	0.000165356206707656
2	579	124.251793686294	0.776824951171875	0.77728271484375	2.215576171875E-07	1.72212907045832E-07	3508264.5	0.000165376870427281
2	580	124.35250168604	0.766754150390625	0.76690673828125	2.1331787109375E-07	1.63594904734055E-07	3595136	0.000165398756507784
2	581	124.453209685786	0.756683349609375	0.75714111328125	1.42517089843749E-07	1.07905542279241E-07	5312634	0.000165416684467345
2	582	124.553917685532	0.746612548828125	0.746551513671875	-1.12915039062494E-08	-8.42968894687601E-09	-66116216	0.000165423291036859
2	583	124.654625685277	0.736541748046875	0.73651123046875	-2.606201171875E-07	-1.91949638406186E-07	-2825995.25	0.000165409597684629
2	584	124.755333685023	0.726470947265625	0.726470947265625	-6.12792968750001E-07	-4.45176283392357E-07	-1185508	0.000165365621796809
2	585	124.856041684769	0.716400146484375	0.71636962890625	-1.06689453125E-06	-7.64290803090262E-07	-671453.125	0.000165281031513587
2	586	124.956749684515	0.706329345703125	0.706268310546875	-1.6033935546875E-06	-1.13242606403219E-06	-440483.4375	0.000165146571816877
2	587	125.05745768426	0.696258544921875	0.696258544921875	-2.1881103515625E-06	-1.52349048221367E-06	-318200.84375	0.000164955665240996
2	588	125.158165684006	0.686187744140625	0.6861572265625	-2.77099609375E-06	-1.90133891919686E-06	-247621.15625	0.000164705954375677
2	589	125.258873683752	0.676116943359375	0.676116943359375	-3.302001953125E-06	-2.23253937292611E-06	-204759.703125	0.000164400145877153
2	590	125.359581683497	0.666046142578125	0.665985107421875	-3.72772216796875E-06	-2.48260744228901E-06	-178657.390625	0.000164046170539223
2	591	125.460289683243	0.655975341796875	0.655914306640625	-4.010009765625E-06	-2.63022275248659E-06	-163569.25	0.000163656557560898
2	592	125.560997682989	0.645904541015625	0.645843505859375	-4.13055419921875E-06	-2.66769166046288E-06	-156357.59375	0.00016324664466083
2	593	125.661705682735	0.635833740234375	0.635833740234375	-4.10247802734375E-06	-2.60849378719286E-06	-154987.734375	0.00016283207514789
2	594	125.76241368248	0.625762939453125	0.625732421875	-3.95904541015625E-06	-2.47730304181459E-06	-158051.34375	0.000162426149472594
2	595	125.863121682226	0.615692138671875	0.61572265625	-3.7420654296875E-06	-2.30407431445201E-06	-164540.859375	0.000162038355483674
2	596	125.963829681972	0.605621337890625	0.605621337890625	-3.489990234375E-06	-2.11361248148023E-06	-173530.953125	0.000161674193805084
2	597	126.064537681718	0.595550537109375	0.5955810546875	-3.22967529296875E-06	-1.92353331840422E-06	-184408.953125	0.000161335832672194
2	598	126.165245681463	0.585479736328125	0.58544921875	-2.97760009765625E-06	-1.74323361079587E-06	-196617.828125	0.000161023272085004
2	599	126.265953681209	0.575408935546875	0.575439453125	-2.74200439453125E-06	-1.57785757437523E-06	-209860.875	0.000160735275130719
2	600	126.366661680955	0.565338134765625	0.5653076171875	-2.52655029296875E-06	-1.4282779829955E-06	-223746.84375	0.000160469979164191
2	601	126.467369680701	0.555267333984375	0.5552978515625	-2.33154296875E-06	-1.29470072351978E-06	-238167.546875	0.000160225361469202
2	602	126.568077680446	0.545196533203125	0.545196533203125	-2.15576171875E-06	-1.17531374144164E-06	-252902.046875	0.000159999399329536
2	603	126.668785680192	0.535125732421875	0.535125732421875	-1.99737548828125E-06	-1.06884704109689E-06	-267914.4375	0.000159790273755789
2	604	126.769493679938	0.525054931640625	0.5250244140625	-1.8548583984375E-06	-9.73845999396872E-07	-283053.625	0.000159596296725795
2	605	126.870201679684	0.514984130859375	0.514984130859375	-1.72637939453125E-06	-8.89057957920159E-07	-298303	0.000159415969392285
2	606	126.970909679429	0.504913330078125	0.504913330078125	-1.6107177734375E-06	-8.13272833966039E-07	-313471.03125	0.000159247938427143
2	607	127.071617679175	0.494842529296875	0.494903564453125	-1.5045166015625E-06	-7.4459063625909E-07	-328945.21875	0.000159091068780981
2	608	127.172325678921	0.484771728515625	0.48480224609375	-1.40838623046875E-06	-6.82788765971054E-07	-344225.375	0.000158944385475479
2	609	127.273033678666	0.474700927734375	0.474639892578125	-1.31988525390625E-06	-6.26470182396588E-07	-359606.9375	0.000158807015395723
2	610	127.373741678412	0.464630126953125	0.464630126953125	-1.23809814453125E-06	-5.75257672608132E-07	-375277.3125	0.000158678201842122
2	611	127.474449678158	0.454559326171875	0.454559326171875	-1.16302490234375E-06	-5.28663804288954E-07	-390842.3125	0.000158557304530405
2	612	127.575157677904	0.444488525390625	0.444488525390625	-1.09375E-06	-4.8615936520946E-07	-406389.5	0.000158443668624386
2	613	127.675865677649	0.434417724609375	0.4344482421875	-1.02935791015625E-06	-4.47202751274745E-07	-422057.5	0.000158336755703203
2	614	127.776573677395	0.424346923828125	0.424285888671875	-9.6923828125E-07	-4.11234111652448E-07	-437751.90625	0.000158236114657484
2	615	127.877281677141	0.414276123046875	0.414337158203125	-9.13391113281251E-07	-3.78451858296103E-07	-453625.125	0.000158141323481686
2	616	127.977989676887	0.404205322265625	0.40423583984375	-8.612060546875E-07	-3.48130356542242E-07	-469383.40625	0.000158051960170269
2	617	128.078697676632	0.394134521484375	0.394134521484375	-8.11767578125E-07	-3.19945627325069E-07	-485526.3125	0.000157967719133012
2	618	128.179405676378	0.384063720703125	0.384124755859375	-7.659912109375E-07	-2.94236201625608E-07	-501474.09375	0.00015788828022778
2	619	128.280113676124	0.373992919921875	0.3740234375	-7.22351074218749E-07	-2.70176229832941E-07	-517786.25	0.000157813337864354
2	620	128.38082167587	0.363922119140625	0.36395263671875	-6.8084716796875E-07	-2.47796123176158E-07	-534558.5	0.000157742673764005
2	621	128.481529675615	0.353851318359375	0.353851318359375	-6.41784667968751E-07	-2.27096350613465E-07	-551355.25	0.000157676069648005
2	622	128.582237675361	0.343780517578125	0.34375	-6.04858398437499E-07	-2.07920066941369E-07	-568314.875	0.000157613307237625
2	623	128.682945675107	0.333709716796875	0.333740234375	-5.694580078125E-07	-1.90051039794525E-07	-586066.4375	0.000157554168254137
2	624	128.783653674853	0.323638916015625	0.32366943359375	-5.36499023437501E-07	-1.73648317058905E-07	-603299.25	0.000157498478074558
2	625	128.884361674598	0.313568115234375	0.3135986328125	-5.04455566406251E-07	-1.58196570509972E-07	-621657.625	0.000157446062075906
2	626	128.985069674344	0.303497314453125	0.303466796875	-4.73632812499999E-07	-1.43731824664428E-07	-640721.625	0.000157396818394773
2	627	129.08577767409	0.293426513671875	0.293487548828125	-4.443359375E-07	-1.30407059373283E-07	-660508.25	0.000157350586960092
2	628	129.186485673835	0.283355712890625	0.283355712890625	-4.15649414062499E-07	-1.17776629338096E-07	-681718.0625	0.000157307280460373
2	629	129.287193673581	0.273284912109375	0.2733154296875	-3.8787841796875E-07	-1.06013153811091E-07	-704642.0625	0.000157266826136038
2	630	129.387901673327	0.263214111328125	0.263275146484375	-3.5980224609375E-07	-9.47269853668331E-08	-731721.8125	0.000157229180331342
2	631	129.488609673073	0.253143310546875	0.253173828125	-3.33251953124999E-07	-8.43706686737278E-08	-759707	0.000157194284838624
2	632	129.589317672818	0.243072509765625	0.243072509765625	-3.07312011718749E-07	-7.46991020150745E-08	-790963.25	0.000157162023242563
2	633	129.690025672564	0.233001708984375	0.233001708984375	-2.81372070312499E-07	-6.55601724020016E-08	-828091.1875	0.000157132380991243
2	634	129.79073367231	0.222930908203125	0.222930908203125	-2.56958007812499E-07	-5.7283880749992E-08	-867577.1875	0.000157105270773172
2	635	129.891441672056	0.212860107421875	0.212860107421875	-2.34069824218749E-07	-4.98241270463495E-08	-909387.25	0.000157080547069199
2	636	129.992149671801	0.202789306640625	0.20281982421875	-2.117919921875E-07	-4.29556124004193E-08	-957636.9375	0.000157058093464002
2	637	130.092857671547	0.192718505859375	0.192779541015625	-1.92871093749999E-07	-3.71816000210856E-08	-999525.375	0.000157037720782682
2	638	130.193565671293	0.182647705078125	0.182647705078125	-1.77001953125E-07	-3.23290016979172E-08	-1031896.5625	0.00015701909433119
2	639	130.294273671039	0.172576904296875	0.172607421875	-1.6448974609375E-07	-2.83921508525964E-08	-1049350.625	0.000157001908519305
2	640	130.394981670784	0.162506103515625	0.16253662109375	-1.56555175781251E-07	-2.54459493476134E-08	-1038206.625	0.000156985741341487
2	641	130.49568967053	0.152435302734375	0.152496337890625	-1.5380859375E-07	-2.345524663383E-08	-991468.3125	0.000156970112584531
2	642	130.596397670276	0.142364501953125	0.14239501953125	-1.57775878906249E-07	-2.24664979953104E-08	-902514.5625	0.000156954425619915
2	643	130.697105670022	0.132293701171875	0.13232421875	-1.69982910156249E-07	-2.24928555780934E-08	-778456	0.000156937909196131
2	644	130.797813669767	0.122222900390625	0.122283935546875	-1.93176269531251E-07	-2.36223538507829E-08	-633017.375	0.000156919631990604
2	645	130.898521669513	0.112152099609375	0.112213134765625	-2.3162841796875E-07	-2.59917491973738E-08	-484453.25	0.000156898240675218
2	646	130.999229669259	0.102081298828125	0.102081298828125	-2.911376953125E-07	-2.97197146892358E-08	-350628.9375	0.00015687191626057
2	647	131.099937669004	0.092010498046875	0.09210205078125	-3.77807617187501E-07	-3.47968551750455E-08	-243780.3125	0.000156838228576817
2	648	131.20064566875	0.081939697265625	0.08197021484375	-4.986572265625E-07	-4.08750366887034E-08	-164381.890625	0.000156794092617929
2	649	131.301353668496	0.071868896484375	0.07196044921875	-6.60095214843751E-07	-4.75007482236833E-08	-109015.2578125	0.000156735753989778
2	650	131.402061668242	0.061798095703125	0.061859130859375	-8.65478515625E-07	-5.35377502330903E-08	-71473.90625	0.000156658934429288
2	651	131.502769667987	0.051727294921875	0.05181884765625	-1.11175537109375E-06	-5.76098777571588E-08	-46609.94140625	0.000156559370225295
2	652	131.603477667733	0.041656494140625	0.041748046875	-1.38641357421875E-06	-5.78800545270042E-08	-30112.26171875	0.000156433568918146
2	653	131.704185667479	0.031585693359375	0.0316864013671875	-1.6693115234375E-06	-5.28944745781246E-08	-18981.720703125	0.000156279711518437
2	654	131.804893667225	0.021514892578125	0.02159423828125	-1.93115234375E-06	-4.17017638199013E-08	-11182.0478515625	0.000156098409206606
2	655	131.90560166697	0.011444091796875	0.0115753173828125	-2.1441650390625E-06	-2.48193892105064E-08	-5398.52001953125	0.000155893198098056
2	656	132.006309666716	0.001373291015625	0.0014984130859375	-2.29034423828125E-06	-3.4318814456924E-09	-654.230529785156	0.000155669913510792
2	657	132.107017666462	-0.008697509765625	-0.008575439453125	-2.3638916015625E-06	2.02714094399425E-08	3627.67895507813	0.000155435540364124
2	658	132.207725666208	-0.018768310546875	-0.0186492919921875	-2.37274169921875E-06	4.42499512587347E-08	7859.80712890625	0.000155197034473531
2	659	132.308433665953	-0.028839111328125	-0.0287017822265625	-2.33306884765625E-06	6.69632314043156E-08	12302.158203125	0.000154960085637867
2	660	132.409141665699	-0.038909912109375	-0.0387542724609375	-2.2625732421875E-06	8.76843770925007E-08	17128.40625	0.000154728666529991
2	661	132.509849665445	-0.048980712890625	-0.04884033203125	-2.17681884765625E-06	1.06316548453833E-07	22436.564453125	0.000154505134560168
2	662	132.610557665191	-0.059051513671875	-0.058990478515625	-2.086181640625E-06	1.23064850754417E-07	28276.76953125	0.000154290479258634
2	663	132.711265664936	-0.069122314453125	-0.06903076171875	-1.9976806640625E-06	1.3790140940273E-07	34555.45703125	0.000154084831592627
2	664	132.811973664682	-0.079193115234375	-0.079132080078125	-1.915283203125E-06	1.51560328731648E-07	41316.12890625	0.000153887798660435
2	665	132.912681664428	-0.089263916015625	-0.08917236328125	-1.8402099609375E-06	1.64095865784475E-07	48457.7109375	0.000153698696522042
2	666	133.013389664173	-0.099334716796875	-0.099212646484375	-1.7742919921875E-06	1.76032202148235E-07	55916.75390625	0.000153516695718281
2	667	133.114097663919	-0.109405517578125	-0.10931396484375	-1.71661376953125E-06	1.87649845884152E-07	63680	0.000153340908582322
2	668	133.214805663665	-0.119476318359375	-0.119415283203125	-1.66748046875E-06	1.99122652588812E-07	71614.203125	0.000153170505654998
2	669	133.315513663411	-0.129547119140625	-0.12945556640625	-1.62506103515625E-06	2.10373201525726E-07	79661.96875	0.000153004715684801
2	670	133.416221663156	-0.139617919921875	-0.139495849609375	-1.58935546875E-06	2.21708489789307E-07	87768.8203125	0.000152842854731716
2	671	133.516929662902	-0.149688720703125	-0.149566650390625	-1.56005859375E-06	2.33332727361812E-07	95872.4609375	0.000152684267959557
2	672	133.617637662648	-0.159759521484375	-0.159637451171875	-1.536865234375E-06	2.45341226445817E-07	103872.125	0.00015252832963597
2	673	133.718345662394	-0.169830322265625	-0.16973876953125	-1.5179443359375E-06	2.57653994140128E-07	111821.4765625	0.000152374501340091
2	674	133.819053662139	-0.179901123046875	-0.17974853515625	-1.50421142578125E-06	2.70379786115882E-07	119496.859375	0.000152222331962548
2	675	133.919761661885	-0.189971923828125	-0.189849853515625	-1.495361328125E-06	2.83894109998073E-07	126959.1875	0.000152071283082478
2	676	134.020469661631	-0.200042724609375	-0.199920654296875	-1.49169921875E-06	2.9822149372194E-07	134022.09375	0.000151920874486677
2	677	134.121177661377	-0.189971923828125	-0.189788818359375	-1.312255859375E-06	2.4905148165999E-07	144627.921875	0.000151779691805132
