Potential - Start -0.2 V, Upper Vertex 1.5 V, Lower Vertex -0.2 V, Stop -0.19 V; Scan - # end cross 5, Rate 0.1 Vps, Step 0.01 V 
Scan	Index	Time (s)	Potential applied (V)	WE(1).Potential (V)	WE(1).Current (A)	WE(1).Power (W)	WE(1).Resistance (Ω)	WE(1).Charge (C)
1	1	45.6678578846997	-0.189971923828125	-0.189788818359375	-1.48620605468749E-07	2.82065286683064E-08	1277002.125	0
1	2	45.7685658844455	-0.179901123046875	-0.179718017578125	-1.300048828125E-07	2.33642190039518E-08	1382394.375	-1.40299070139349E-08
1	3	45.8692738841912	-0.169830322265625	-0.169677734375	-1.15356445312501E-07	1.95734202179665E-08	1470899.5	-2.63848320969373E-08
1	4	45.969981883937	-0.159759521484375	-0.15960693359375	-1.03149414062501E-07	1.64633604526898E-08	1547337.375	-3.73874762260584E-08
1	5	46.0706898836827	-0.149688720703125	-0.149566650390625	-9.27734375000003E-08	1.38758116108306E-08	1612171.125	-4.72529748662964E-08
1	6	46.1713978834284	-0.139617919921875	-0.13946533203125	-8.27026367187497E-08	1.15341505235733E-08	1686346.875	-5.6088897082418E-08
1	7	46.2721058831742	-0.129547119140625	-0.129425048828125	-7.38525390624995E-08	9.55836831906254E-09	1752479.375	-6.3972073860441E-08
1	8	46.3728138829199	-0.119476318359375	-0.119384765625	-6.43920898437497E-08	7.68743468881894E-09	1854028.375	-7.0933246831828E-08
1	9	46.4735218826656	-0.109405517578125	-0.109283447265625	-5.52368164062497E-08	6.03646954644432E-09	1978453.125	-7.69570362990635E-08
1	10	46.5742298824114	-0.099334716796875	-0.099212646484375	-4.51660156250006E-08	4.48103998351712E-09	2196621.75	-8.20127254996805E-08
1	11	46.6749378821571	-0.089263916015625	-0.089202880859375	-3.29589843750006E-08	2.94003621448269E-09	2706481.5	-8.59466311453616E-08
1	12	46.7756458819028	-0.079193115234375	-0.079132080078125	-1.92260742187506E-08	1.52139911779869E-09	4115873.25	-8.85743531853223E-08
1	13	46.8763538816486	-0.069122314453125	-0.069061279296875	-2.13623046874945E-09	1.47530793137562E-10	32328574	-8.96500296221348E-08
1	14	46.9770618813943	-0.059051513671875	-0.058990478515625	2.10571289062503E-08	-1.24217003349969E-09	-2801449.5	-8.86972912894635E-08
1	15	47.0777698811401	-0.048980712890625	-0.048797607421875	5.12695312500006E-08	-2.50183052052932E-09	-951785.75	-8.50553547593336E-08
1	16	47.1784778808858	-0.038909912109375	-0.038720703125	9.27734375000003E-08	-3.59225271751029E-09	-417368.46875	-7.78022126723954E-08
1	17	47.2791858806315	-0.028839111328125	-0.02867431640625	1.4923095703125E-07	-4.27909574440832E-09	-192147.234375	-6.56163265944087E-08
1	18	47.3798938803773	-0.018768310546875	-0.0186187744140625	2.2735595703125E-07	-4.23308899044628E-09	-81892.6171875	-4.66536675958196E-08
1	19	47.480601880123	-0.008697509765625	-0.00855407714843751	3.33251953124999E-07	-2.85066259486655E-09	-25668.498046875	-1.84248190038261E-08
1	20	47.5813098798687	0.001373291015625	0.001513671875	4.7332763671875E-07	7.16462666972006E-10	3197.93676757813	2.21896883090267E-08
1	21	47.6820178796145	0.011444091796875	0.011590576171875	6.52465820312501E-07	7.56245466249084E-09	17764.265625	7.88778891092079E-08
1	22	47.7827258793602	0.021514892578125	0.021673583984375	8.69140625000001E-07	1.88373920906315E-08	24936.798828125	1.55496863385451E-07
1	23	47.883433879106	0.031585693359375	0.0317291259765625	1.11541748046875E-06	3.53912206207951E-08	28445.962890625	2.55427295314803E-07
1	24	47.9841418788517	0.041656494140625	0.0417938232421875	1.37603759765625E-06	5.75098688671005E-08	30372.58984375	3.8088202813924E-07
1	25	48.0848498785974	0.051727294921875	0.0517578125	1.6278076171875E-06	8.42517593468983E-08	31796.025390625	5.32137619302375E-07
1	26	48.1855578783432	0.061798095703125	0.061859130859375	1.846923828125E-06	1.1424909729385E-07	33493.0625	7.0710427735321E-07
1	27	48.2862658780889	0.071868896484375	0.071929931640625	2.01385498046875E-06	1.44856457495735E-07	35717.53125	9.01509906725551E-07
1	28	48.3869738778346	0.081939697265625	0.082000732421875	2.1160888671875E-06	1.73520831481255E-07	38751.08203125	1.10946905351739E-06
1	29	48.4876818775804	0.092010498046875	0.092071533203125	2.1539306640625E-06	1.9831568920381E-07	42745.8203125	1.32448167278199E-06
1	30	48.5883898773261	0.102081298828125	0.102142333984375	2.13714599609375E-06	2.1829306717791E-07	47793.8046875	1.54055453549518E-06
1	31	48.6890978770718	0.112152099609375	0.112213134765625	2.083740234375E-06	2.33823016060342E-07	53851.7890625	1.75309298811044E-06
1	32	48.7898058768176	0.122222900390625	0.122283935546875	2.0086669921875E-06	2.45627717276875E-07	60878.15234375	1.95916209122515E-06
1	33	48.8905138765633	0.132293701171875	0.13238525390625	1.92413330078125E-06	2.547268707076E-07	68802.5390625	2.15719433072081E-06
1	34	48.9912218763091	0.142364501953125	0.1424560546875	1.83837890625E-06	2.61888203567651E-07	77490.046875	2.34665185416816E-06
1	35	49.0919298760548	0.152435302734375	0.152496337890625	1.756591796875E-06	2.67873815573694E-07	86813.765625	2.52767290476186E-06
1	36	49.1926378758005	0.162506103515625	0.162567138671875	1.68121337890625E-06	2.73310035936447E-07	96696.3203125	2.70078021458175E-06
1	37	49.2933458755463	0.172576904296875	0.172637939453125	1.6119384765625E-06	2.7828173188027E-07	107099.5859375	2.86660360870883E-06
1	38	49.394053875292	0.182647705078125	0.18267822265625	1.54998779296875E-06	2.83149006463645E-07	117857.8515625	3.02581929645385E-06
1	39	49.4947618750377	0.192718505859375	0.192718505859375	1.4947509765625E-06	2.88066161147071E-07	128930.1796875	3.17913395520009E-06
1	40	49.5954698747835	0.202789306640625	0.202850341796875	1.4453125E-06	2.93182125687963E-07	140350.515625	3.32717786477588E-06
1	41	49.6961778745292	0.212860107421875	0.212890625	1.4007568359375E-06	2.9820799340996E-07	151982.578125	3.47048899129732E-06
1	42	49.7968858742749	0.222930908203125	0.22296142578125	1.361083984375E-06	3.03469221307751E-07	163811.65625	3.60955868927704E-06
1	43	49.8975938740207	0.233001708984375	0.233062744140625	1.3250732421875E-06	3.08825178763072E-07	175886.703125	3.74481737708265E-06
1	44	49.9983018737664	0.243072509765625	0.24310302734375	1.29302978515625E-06	3.14339445139922E-07	188010.390625	3.87664931622567E-06
1	45	50.0990098735122	0.253143310546875	0.253143310546875	1.263427734375E-06	3.19828274086831E-07	200362.3125	4.0053773773252E-06
1	46	50.1997178732579	0.263214111328125	0.26324462890625	1.23748779296875E-06	3.25761988051454E-07	212725.046875	4.13130828746944E-06
1	47	50.3004258730036	0.273284912109375	0.27325439453125	1.21368408203125E-06	3.31644514517393E-07	225144.578125	4.25473444920499E-06
1	48	50.4011338727494	0.283355712890625	0.283355712890625	1.19232177734375E-06	3.37851190579386E-07	237650.375	4.37588641943876E-06
1	49	50.5018418724951	0.293426513671875	0.293426513671875	1.17156982421875E-06	3.43769642086045E-07	250455.859375	4.49491790277534E-06
1	50	50.6025498722408	0.303497314453125	0.303497314453125	1.153564453125E-06	3.50103704249705E-07	263095.25	4.61199806522927E-06
1	51	50.7032578719866	0.313568115234375	0.3135986328125	1.13616943359375E-06	3.56301171677842E-07	276013.96875	4.72729516332038E-06
1	52	50.8039658717323	0.323638916015625	0.323699951171875	1.12060546875E-06	3.62739939419043E-07	288861.65625	4.8409328883281E-06
1	53	50.9046738714781	0.333709716796875	0.333740234375	1.1065673828125E-06	3.69306036418493E-07	301599.59375	4.95307995151961E-06
1	54	51.0053818712238	0.343780517578125	0.343780517578125	1.09405517578125E-06	3.76114854816478E-07	314225.9375	5.06389005749952E-06
1	55	51.1060898709695	0.353851318359375	0.3538818359375	1.0821533203125E-06	3.82954397082358E-07	327016.375	5.17347052664263E-06
1	56	51.2067978707153	0.363922119140625	0.363983154296875	1.07177734375E-06	3.90108880310436E-07	339607.0625	5.28192958881846E-06
1	57	51.307505870461	0.373992919921875	0.3740234375	1.06170654296875E-06	3.97103121940745E-07	352285.15625	5.38935910299188E-06
1	58	51.4082138702067	0.384063720703125	0.38409423828125	1.053466796875E-06	4.04630526418259E-07	364600.21875	5.49586684428505E-06
1	59	51.5089218699525	0.394134521484375	0.3941650390625	1.04583740234375E-06	4.12232537883028E-07	376889.40625	5.60157513973536E-06
1	60	51.6096298696982	0.404205322265625	0.404205322265625	1.03912353515625E-06	4.20019262037385E-07	388986.78125	5.70656129639247E-06
1	61	51.7103378694439	0.414276123046875	0.414276123046875	1.033935546875E-06	4.28334800517405E-07	400678.875	5.8109480960411E-06
1	62	51.8110458691897	0.424346923828125	0.42437744140625	1.0284423828125E-06	4.36447749052604E-07	412640.9375	5.91479692957364E-06
1	63	51.9117538689354	0.434417724609375	0.434417724609375	1.02447509765625E-06	4.45050119424195E-07	424039.34375	6.0181696426298E-06
1	64	52.0124618686812	0.444488525390625	0.444488525390625	1.0211181640625E-06	4.53875287576011E-07	435295.90625	6.12117355558439E-06
1	65	52.1131698684269	0.454559326171875	0.45452880859375	1.01837158203125E-06	4.62879199858435E-07	446329.03125	6.22386960458243E-06
1	66	52.2138778681726	0.464630126953125	0.464599609375	1.0150146484375E-06	4.71575390292855E-07	457727	6.32625869911863E-06
1	67	52.3145858679184	0.474700927734375	0.474700927734375	1.01348876953125E-06	4.81104052596493E-07	468383.03125	6.42840223008534E-06
1	68	52.4152938676641	0.484771728515625	0.48480224609375	1.011962890625E-06	4.90601848923689E-07	479071.21875	6.5303916017001E-06
1	69	52.5160018674098	0.494842529296875	0.49481201171875	1.01043701171875E-06	4.99976351875375E-07	489701	6.63222772345762E-06
1	70	52.6167098671556	0.504913330078125	0.504974365234375	1.009521484375E-06	5.09782466906472E-07	500211.59375	6.73394060868304E-06
1	71	52.7174178669013	0.514984130859375	0.514984130859375	1.00921630859375E-06	5.19730349424208E-07	510281.25	6.8355921030161E-06
1	72	52.8181258666471	0.525054931640625	0.5250244140625	1.0101318359375E-06	5.30343811533385E-07	519758.34375	6.93727452016901E-06
1	73	52.9188338663928	0.535125732421875	0.535064697265625	1.01043701171875E-06	5.40649182312336E-07	529537.875	7.0390183282143E-06
1	74	53.0195418661385	0.545196533203125	0.545166015625	1.011962890625E-06	5.51687719507754E-07	538721.375	7.14085399522446E-06
1	75	53.1202498658843	0.555267333984375	0.55523681640625	1.01348876953125E-06	5.62726256703172E-07	547847.0625	7.24284382158658E-06
1	76	53.22095786563	0.565338134765625	0.565338134765625	1.01470947265625E-06	5.73653949231812E-07	557142.875	7.34497143639601E-06
1	77	53.3216658653757	0.575408935546875	0.575439453125	1.016845703125E-06	5.85133136610239E-07	565906.375	7.44726867196732E-06
1	78	53.4223738651215	0.585479736328125	0.58544921875	1.019287109375E-06	5.9674084695871E-07	574371.25	7.54979600969818E-06
1	79	53.5230818648672	0.595550537109375	0.595489501953125	1.0211181640625E-06	6.08065136020741E-07	583173.9375	7.65253844292602E-06
1	80	53.6237898646129	0.605621337890625	0.6055908203125	1.02264404296875E-06	6.19303818893968E-07	592181.4375	7.75545049691573E-06
1	81	53.7244978643587	0.615692138671875	0.61566162109375	1.02508544921875E-06	6.31105763204687E-07	600595.4375	7.85856173024513E-06
1	82	53.8252058641044	0.625762939453125	0.625732421875	1.026611328125E-06	6.42384009097441E-07	609512.4375	7.96187305240892E-06
1	83	53.9259138638502	0.635833740234375	0.635772705078125	1.02813720703125E-06	6.5366151602575E-07	618373.4375	8.06533716968261E-06
1	84	54.0266218635959	0.645904541015625	0.64593505859375	1.02996826171875E-06	6.65292589019373E-07	627140.8125	8.16897136246553E-06
1	85	54.1273298633416	0.655975341796875	0.655914306640625	1.03118896484375E-06	6.7637159872902E-07	636075.75	8.27275835035834E-06
1	86	54.2280378630874	0.666046142578125	0.666046142578125	1.03302001953125E-06	6.88038994667295E-07	644756.3125	8.37669995235046E-06
1	87	54.3287458628331	0.676116943359375	0.676055908203125	1.0333251953125E-06	6.98585552072473E-07	654252.875	8.48074887471739E-06
1	88	54.4294538625788	0.686187744140625	0.686126708984375	1.03424072265625E-06	7.0962011022857E-07	663411.0625	8.58485873322934E-06
1	89	54.5301618623246	0.696258544921875	0.6961669921875	1.0345458984375E-06	7.20216689842346E-07	672920.375	8.68903043738101E-06
1	90	54.6308698620703	0.706329345703125	0.706268310546875	1.03424072265625E-06	7.30451404251653E-07	682885.875	8.79320214153267E-06
1	91	54.731577861816	0.716400146484375	0.71630859375	1.03485107421875E-06	7.41272685900185E-07	692185.25	8.89738930709427E-06
1	92	54.8322858615618	0.726470947265625	0.72637939453125	1.0345458984375E-06	7.51472839510825E-07	702123.875	9.0015919340658E-06
1	93	54.9329938613075	0.736541748046875	0.736480712890625	1.0345458984375E-06	7.61923104164453E-07	711887.875	9.1057790996274E-06
1	94	55.0337018610533	0.746612548828125	0.74652099609375	1.03424072265625E-06	7.72082387356932E-07	721805.875	9.20995080377907E-06
1	95	55.134409860799	0.756683349609375	0.7568359375	1.03363037109375E-06	7.8228862321339E-07	732211.375	9.31407612370094E-06
1	96	55.2351178605447	0.766754150390625	0.7666015625	1.03302001953125E-06	7.91914771980373E-07	742097.5	9.4181405074778E-06
1	97	55.3358258602905	0.776824951171875	0.77667236328125	1.0333251953125E-06	8.02555064183252E-07	751624.375	9.52218852035003E-06
1	98	55.4365338600362	0.786895751953125	0.78704833984375	1.03363037109375E-06	8.13517090136884E-07	761440.8125	9.62626836553682E-06
1	99	55.5372418597819	0.796966552734375	0.79742431640625	1.03363037109375E-06	8.24242022190447E-07	771479.1875	9.73036276263883E-06
1	100	55.6379498595277	0.807037353515625	0.806884765625	1.033935546875E-06	8.34266813853901E-07	780401.4375	9.83447353064548E-06
1	101	55.7386578592734	0.817108154296875	0.81756591796875	1.03485107421875E-06	8.46058924253157E-07	790032.4375	9.93864523479715E-06
1	102	55.8393658590192	0.827178955078125	0.8270263671875	1.03607177734375E-06	8.5685871908936E-07	798232.6875	1.00429242593236E-05
1	103	55.9400738587649	0.837249755859375	0.83770751953125	1.0369873046875E-06	8.68692097810708E-07	807828.125	1.01473115137196E-05
1	104	56.0407818585106	0.847320556640625	0.84716796875	1.0382080078125E-06	8.79536571574135E-07	815990.625	1.02518051789957E-05
1	105	56.1414898582564	0.857391357421875	0.8575439453125	1.03912353515625E-06	8.91094089183753E-07	825257	1.03564070741413E-05
1	106	56.2421978580021	0.867462158203125	0.8673095703125	1.0406494140625E-06	9.02565204796701E-07	833431.0625	1.04611326605664E-05
1	107	56.3429058577478	0.877532958984375	0.8770751953125	1.04278564453125E-06	9.14601343993127E-07	841088.75	1.05660419649212E-05
1	108	56.4436138574936	0.887603759765625	0.88775634765625	1.04461669921875E-06	9.27365022107551E-07	849839.375	1.06711504486157E-05
1	109	56.5443218572393	0.897674560546875	0.89813232421875	1.04583740234375E-06	9.39300377922336E-07	858768.625	1.07764135464095E-05
1	110	56.645029856985	0.907745361328125	0.9075927734375	1.04766845703125E-06	9.50856303916225E-07	866297.6875	1.08818294393132E-05
1	111	56.7457378567308	0.917816162109375	0.91796875	1.04949951171875E-06	9.63407728704624E-07	874672.875	1.0987430869136E-05
1	112	56.8464458564765	0.927886962890625	0.92803955078125	1.05133056640625E-06	9.75676243797352E-07	882728.625	1.10932160168886E-05
1	113	56.9471538562223	0.937957763671875	0.93841552734375	1.05224609375E-06	9.87443968369917E-07	891821.375	1.11991394078359E-05
1	114	57.047861855968	0.948028564453125	0.9478759765625	1.0540771484375E-06	9.9913438589283E-07	899247.3125	1.13052010419779E-05
1	115	57.1485698557137	0.958099365234375	0.95794677734375	1.05560302734375E-06	1.01121145235084E-06	907487.75	1.14114318421343E-05
1	116	57.2492778554595	0.968170166015625	0.9686279296875	1.05712890625E-06	1.02396461443277E-06	916281.75	1.15178163468954E-05
1	117	57.3499858552052	0.978240966796875	0.9783935546875	1.058349609375E-06	1.03548234164919E-06	924452.1875	1.16243390948512E-05
1	118	57.4506938549509	0.988311767578125	0.98846435546875	1.0601806640625E-06	1.04795083188947E-06	932354.625	1.17310155474115E-05
1	119	57.5514018546967	0.998382568359375	0.99822998046875	1.06201171875E-06	1.06013192180399E-06	939942.5	1.18378766273963E-05
1	120	57.6521098544424	1.00845336914063	1.00830078125	1.06353759765625E-06	1.07236576241121E-06	948063.1875	1.19449068733957E-05
1	121	57.7528178541882	1.01852416992188	1.01837158203125	1.06536865234375E-06	1.08494123196579E-06	955886.5625	1.20521053759148E-05
1	122	57.8535258539339	1.02859497070313	1.0284423828125	1.06719970703125E-06	1.09755342236895E-06	963683.125	1.21594885058585E-05
1	123	57.9542338536796	1.03866577148438	1.03912353515625	1.06964111328125E-06	1.11148915493686E-06	971469.375	1.22670871860464E-05
1	124	58.0549418534254	1.04873657226563	1.04827880859375	1.07208251953125E-06	1.12384134354215E-06	977796.8125	1.23749314298038E-05
1	125	58.1556498531711	1.05880737304688	1.05865478515625	1.07513427734375E-06	1.13819601210707E-06	984672.1875	1.24830521599506E-05
1	126	58.2563578529168	1.06887817382813	1.06903076171875	1.0784912109375E-06	1.15294028546487E-06	991228.0625	1.25914957607165E-05
1	127	58.3570658526626	1.07894897460938	1.07879638671875	1.08184814453125E-06	1.16709384201386E-06	997179.125	1.27002776935115E-05
1	128	58.4577738524083	1.08901977539063	1.08917236328125	1.08642578125E-06	1.18330490295193E-06	1002528.125	1.28094588944805E-05
1	129	58.558481852154	1.09909057617188	1.0992431640625	1.0906982421875E-06	1.19894252748054E-06	1007834.375	1.29190857478534E-05
1	130	58.6591898518998	1.10916137695313	1.1090087890625	1.0955810546875E-06	1.21500897876103E-06	1012256.25	1.30291737150401E-05
1	131	58.7598978516455	1.11923217773438	1.11907958984375	1.10107421875E-06	1.23218967473804E-06	1016352.5625	1.31397846416803E-05
1	132	58.8606058513913	1.12930297851563	1.129150390625	1.10626220703125E-06	1.24913640320301E-06	1020689.6875	1.32509321701946E-05
1	133	58.961313851137	1.13937377929688	1.13922119140625	1.112060546875E-06	1.26688291857135E-06	1024423.6875	1.33626335809822E-05
1	134	59.0620218508827	1.14944458007813	1.14959716796875	1.1181640625E-06	1.28543820210325E-06	1028111.375	1.34749343487783E-05
1	135	59.1627298506285	1.15951538085938	1.15936279296875	1.124267578125E-06	1.30343391901988E-06	1031216.0625	1.35878499349928E-05
1	136	59.2634378503742	1.16958618164063	1.16943359375	1.131591796875E-06	1.3233213849162E-06	1033441.3125	1.37014412757708E-05
1	137	59.3641458501199	1.17965698242188	1.17919921875	1.1383056640625E-06	1.34228912429535E-06	1035925	1.38157402034267E-05
1	138	59.4648538498657	1.18972778320313	1.18927001953125	1.14532470703125E-06	1.36210019263672E-06	1038369.375	1.39307303470559E-05
1	139	59.5655618496114	1.19979858398438	1.199951171875	1.15325927734375E-06	1.38385485115577E-06	1040486.875	1.40464726428036E-05
1	140	59.6662698493571	1.20986938476563	1.21002197265625	1.1614990234375E-06	1.40543932047876E-06	1041776.1875	1.4163029845804E-05
1	141	59.7669778491029	1.21994018554688	1.21917724609375	1.17034912109375E-06	1.42686292292638E-06	1041721.0625	1.4280448340287E-05
1	142	59.8676858488486	1.23001098632813	1.2298583984375	1.17889404296875E-06	1.44987268413388E-06	1043230.6875	1.43987417686731E-05
1	143	59.9683938485944	1.24008178710938	1.24053955078125	1.18865966796875E-06	1.47457933508122E-06	1043645.6875	1.45179574246868E-05
1	144	60.0691018483401	1.25015258789063	1.25	1.1981201171875E-06	1.49765014612058E-06	1043301.0625	1.46381416925578E-05
1	145	60.1698098480858	1.26022338867188	1.259765625	1.20819091796875E-06	1.52203733705392E-06	1042687.625	1.47593091242015E-05
1	146	60.2705178478316	1.27029418945313	1.27044677734375	1.219482421875E-06	1.5492875036216E-06	1041791.75	1.48815524880774E-05
1	147	60.3712258475773	1.28036499023438	1.28021240234375	1.2310791015625E-06	1.57604267769784E-06	1039910.8125	1.50049472722458E-05
1	148	60.471933847323	1.29043579101563	1.290283203125	1.243896484375E-06	1.6049787063821E-06	1037291.5	1.51295726027456E-05
1	149	60.5726418470688	1.30050659179688	1.30035400390625	1.2579345703125E-06	1.63576021350309E-06	1033721.5625	1.52555494423723E-05
1	150	60.6733498468145	1.31057739257813	1.31072998046875	1.27410888671875E-06	1.67001269346656E-06	1028742.5625	1.5383047866635E-05
1	151	60.7740578465603	1.32064819335938	1.32049560546875	1.29150390625E-06	1.7054251202353E-06	1022448.0625	1.55122379510431E-05
1	152	60.874765846306	1.33071899414063	1.33026123046875	1.31134033203125E-06	1.74442516254203E-06	1014428.75	1.56433015945368E-05
1	153	60.9754738460517	1.34078979492188	1.34063720703125	1.33331298828125E-06	1.78748894086311E-06	1005493.25	1.57764698087703E-05
1	154	61.0761818457975	1.35086059570313	1.3507080078125	1.35711669921875E-06	1.83306826784246E-06	995277.75	1.59119426825782E-05
1	155	61.1768898455432	1.36093139648438	1.3604736328125	1.38458251953125E-06	1.8836879007722E-06	982587.6875	1.60499985213391E-05
1	156	61.2775978452889	1.37100219726563	1.370849609375	1.41571044921875E-06	1.94072595149919E-06	968312.1875	1.61910047609126E-05
1	157	61.3783058450347	1.38107299804688	1.3818359375	1.4495849609375E-06	2.00308863895771E-06	953263.1875	1.63352833624231E-05
1	158	61.4790138447804	1.39114379882813	1.39190673828125	1.48773193359375E-06	2.07078392122639E-06	935589.75	1.64831890288042E-05
1	159	61.5797218445261	1.40121459960938	1.40045166015625	1.53228759765625E-06	2.14589476854599E-06	913961.375	1.66352601809194E-05
1	160	61.6804298442719	1.41128540039063	1.41143798828125	1.58111572265625E-06	2.23164670387632E-06	892684.8125	1.67920316016534E-05
1	161	61.7811378440176	1.42135620117188	1.42120361328125	1.63848876953125E-06	2.32862612392637E-06	867386.875	1.69541526702233E-05
1	162	61.8818458437634	1.43142700195313	1.431884765625	1.70440673828125E-06	2.44051398112788E-06	840107.4375	1.7122480130638E-05
1	163	61.9825538435091	1.44149780273438	1.44195556640625	1.78192138671875E-06	2.5694514533825E-06	809213.9375	1.72980307979742E-05
1	164	62.0832618432548	1.45156860351563	1.451416015625	1.87225341796875E-06	2.71741851065599E-06	775224.125	1.74820324900793E-05
1	165	62.1839698430006	1.46163940429688	1.4617919921875	1.9793701171875E-06	2.89342733594822E-06	738513.6875	1.76759767782642E-05
1	166	62.2846778427463	1.47171020507813	1.4715576171875	2.10968017578125E-06	3.10451582663518E-06	697526.4375	1.78818772837985E-05
1	167	62.385385842492	1.48178100585938	1.48193359375	2.2674560546875E-06	3.36021912517026E-06	653566.625	1.81022842298262E-05
1	168	62.4860938422378	1.49185180664063	1.49169921875	2.45513916015625E-06	3.66232916348963E-06	607582.375	1.83400861715199E-05
1	169	62.5868018419835	1.50192260742188	1.50177001953125	2.6690673828125E-06	4.00832504965365E-06	562657.25	1.85981098184129E-05
1	170	62.6875098417293	1.49185180664063	1.49139404296875	2.25311279296875E-06	3.36027915182058E-06	661926.0625	1.88459616765613E-05
1	171	62.788217841475	1.48178100585938	1.48162841796875	1.94366455078125E-06	2.87978855340043E-06	762286.0625	1.9057286408497E-05
1	172	62.8889258412207	1.47171020507813	1.47186279296875	1.70196533203125E-06	2.50505945587065E-06	864801.875	1.92408570001135E-05
1	173	62.9896338409665	1.46163940429688	1.46148681640625	1.5093994140625E-06	2.20596734834544E-06	968257.25	1.94025633390993E-05
1	174	63.0903418407122	1.45156860351563	1.45172119140625	1.353759765625E-06	1.96528185369971E-06	1072362.5	1.95467346202349E-05
1	175	63.1910498404579	1.44149780273438	1.4410400390625	1.22894287109375E-06	1.77095591880061E-06	1172585	1.96767832676414E-05
1	176	63.2917578402037	1.43142700195313	1.4312744140625	1.1279296875E-06	1.61437685619603E-06	1268939.5	1.97954614122864E-05
1	177	63.3924658399494	1.42135620117188	1.42181396484375	1.04644775390625E-06	1.48785409237462E-06	1358705.125	1.99049500224646E-05
1	178	63.4931738396951	1.41128540039063	1.4111328125	9.81750488281249E-07	1.38538018745749E-06	1437364.125	2.00070790015161E-05
1	179	63.5938818394409	1.40121459960938	1.4013671875	9.27734375E-07	1.30009641452489E-06	1510526.375	2.01032289623981E-05
1	180	63.6945898391866	1.39114379882813	1.39068603515625	8.84399414062501E-07	1.229921963386E-06	1572463.75	2.01944767468376E-05
1	181	63.7952978389324	1.38107299804688	1.3812255859375	8.4808349609375E-07	1.17139461508486E-06	1628643.5	2.02817136596423E-05
1	182	63.8960058386781	1.37100219726563	1.370849609375	8.160400390625E-07	1.11866813767847E-06	1679880.375	2.03655090444954E-05
1	183	63.9967138384238	1.36093139648438	1.36077880859375	7.8887939453125E-07	1.07349035260995E-06	1724951.625	2.04463231057161E-05
1	184	64.0974218381696	1.35086059570313	1.35101318359375	7.6446533203125E-07	1.03280274288409E-06	1767265.5	2.0524541469058E-05
1	185	64.1981298379153	1.34078979492188	1.3409423828125	7.43408203125E-07	9.96867584035499E-07	1803776.75	2.06004679057514E-05
1	186	64.298837837661	1.33071899414063	1.3311767578125	7.2479248046875E-07	9.64826881499903E-07	1836631.625	2.06743970920797E-05
1	187	64.3995458374068	1.32064819335938	1.32049560546875	7.08923339843751E-07	9.36130106765631E-07	1862677.625	2.07465909625171E-05
1	188	64.5002538371525	1.31057739257813	1.31072998046875	6.94580078125E-07	9.10406924958806E-07	1887082.625	2.08172623388236E-05
1	189	64.6009618368983	1.30050659179688	1.30035400390625	6.8206787109375E-07	8.86929683474591E-07	1906487.625	2.08865822060034E-05
1	190	64.701669836644	1.29043579101563	1.28997802734375	6.7138671875E-07	8.66074117311655E-07	1921363.625	2.0954734281986E-05
1	191	64.8023778363897	1.28036499023438	1.280517578125	6.61621093750001E-07	8.4721739312954E-07	1935424.375	2.10218568099663E-05
1	192	64.9030858361355	1.27029418945313	1.27044677734375	6.5338134765625E-07	8.30086207770364E-07	1944418.5	2.10880734812235E-05
1	193	65.0037938358812	1.26022338867188	1.26007080078125	6.4605712890625E-07	8.14077736777108E-07	1950401.5	2.11535043490585E-05
1	194	65.1045018356269	1.25015258789063	1.2506103515625	6.3934326171875E-07	7.99569249920751E-07	1956086	2.12182294490049E-05
1	195	65.2052098353727	1.24008178710938	1.240234375	6.33850097656249E-07	7.86122711815551E-07	1956668.25	2.12823397305328E-05
1	196	65.3059178351184	1.23001098632813	1.23046875	6.2835693359375E-07	7.73173553625384E-07	1958232.125	2.13458970392821E-05
1	197	65.4066258348641	1.21994018554688	1.219482421875	6.23779296875E-07	7.60687839829188E-07	1954990.25	2.14089468499878E-05
1	198	65.5073338346099	1.20986938476563	1.21002197265625	6.1920166015625E-07	7.492476470361E-07	1954164.625	2.14715364563745E-05
1	199	65.6080418343556	1.19979858398438	1.19964599609375	6.15844726562501E-07	7.38795677079906E-07	1947968.25	2.15337258850923E-05
1	200	65.7087498341014	1.18972778320313	1.18927001953125	6.121826171875E-07	7.28050395082391E-07	1942672.125	2.15955624298658E-05
1	201	65.8094578338471	1.17965698242188	1.17889404296875	6.0943603515625E-07	7.18460512416641E-07	1934401.625	2.16570751945255E-05
1	202	65.9101658335928	1.16958618164063	1.16943359375	6.0577392578125E-07	7.08412358108035E-07	1930478.75	2.17182659980608E-05
1	203	66.0108738333386	1.15951538085938	1.15966796875	6.0302734375E-07	6.99311499374744E-07	1923077	2.17791348404717E-05
1	204	66.1115818330843	1.14944458007813	1.1492919921875	5.9967041015625E-07	6.8919638351872E-07	1916539.5	2.18396944546839E-05
1	205	66.21228983283	1.13937377929688	1.14013671875	5.9661865234375E-07	6.80226833082997E-07	1910997.5	2.18999321077717E-05
1	206	66.3129978325758	1.12930297851563	1.12884521484375	5.92956542968751E-07	6.69356154503475E-07	1903757	2.19598332478199E-05
1	207	66.4137058323215	1.11923217773438	1.1187744140625	5.89904785156251E-07	6.59970339711435E-07	1896534	2.20193942368496E-05
1	208	66.5144138320672	1.10916137695313	1.1090087890625	5.86853027343751E-07	6.50825143111433E-07	1889755.75	2.20786496356595E-05
1	209	66.615121831813	1.09909057617188	1.09893798828125	5.8319091796875E-07	6.4089061879713E-07	1884353.75	2.2137564883451E-05
1	210	66.7158298315587	1.08901977539063	1.08917236328125	5.79223632812501E-07	6.30874353646504E-07	1880400.375	2.21960981434677E-05
1	211	66.8165378313045	1.07894897460938	1.0791015625	5.755615234375E-07	6.21089327523805E-07	1874867.5	2.22542457777308E-05
1	212	66.9172458310502	1.06887817382813	1.06903076171875	5.7220458984375E-07	6.1170425169621E-07	1868266.75	2.23120405280497E-05
1	213	67.0179538307959	1.05880737304688	1.05865478515625	5.682373046875E-07	6.01567137437087E-07	1863050.5	2.23694660235196E-05
1	214	67.1186618305417	1.04873657226563	1.04827880859375	5.6427001953125E-07	5.91512275605055E-07	1857761	2.24264913413208E-05
1	215	67.2193698302874	1.03866577148438	1.0382080078125	5.596923828125E-07	5.81077074457426E-07	1854961.875	2.24830873776227E-05
1	216	67.3200778300331	1.02859497070313	1.0284423828125	5.54809570312501E-07	5.70589691051282E-07	1853685.375	2.25392068387009E-05
1	217	67.4207858297789	1.01852416992188	1.01837158203125	5.50537109375E-07	5.60651358227915E-07	1849778.375	2.259486609546E-05
1	218	67.5214938295246	1.00845336914063	1.00799560546875	5.4595947265625E-07	5.5032472801031E-07	1846283	2.26500796998153E-05
1	219	67.6222018292704	0.998382568359375	0.99853515625	5.41076660156251E-07	5.40284077032993E-07	1845459.75	2.27048167289468E-05
1	220	67.7229098290161	0.988311767578125	0.98846435546875	5.36499023437501E-07	5.30310103386E-07	1842434.75	2.27590753638651E-05
1	221	67.8236178287618	0.978240966796875	0.97808837890625	5.316162109375E-07	5.19967613854533E-07	1839839.375	2.28128592425492E-05
1	222	67.9243258285076	0.968170166015625	0.968017578125	5.2642822265625E-07	5.09591757236194E-07	1838840.625	2.2866137442179E-05
1	223	68.0250338282533	0.958099365234375	0.95794677734375	5.2154541015625E-07	4.99612724524923E-07	1836746.625	2.29189063247759E-05
1	224	68.125741827999	0.948028564453125	0.9478759765625	5.157470703125E-07	4.88864259295951E-07	1837869.875	2.29711386054987E-05
1	225	68.2264498277448	0.937957763671875	0.93841552734375	5.108642578125E-07	4.79402956443664E-07	1836917.625	2.30228324653581E-05
1	226	68.3271578274905	0.927886962890625	0.927734375	5.0537109375E-07	4.68850117840702E-07	1835748.875	2.30740042752586E-05
1	227	68.4278658272362	0.917816162109375	0.91766357421875	5.0048828125E-07	4.59279874576168E-07	1833536.625	2.3124652216211E-05
1	228	68.528573826982	0.907745361328125	0.9075927734375	4.9591064453125E-07	4.50084911562953E-07	1830153.875	2.3174825400929E-05
1	229	68.6292818267277	0.897674560546875	0.89752197265625	4.90417480468749E-07	4.40160448533788E-07	1830118.375	2.32244910876034E-05
1	230	68.7299898264735	0.887603759765625	0.8880615234375	4.85839843749999E-07	4.3145567474312E-07	1827889.375	2.32736492762342E-05
1	231	68.8306978262192	0.877532958984375	0.87738037109375	4.8095703125E-07	4.21982235820906E-07	1824238.75	2.33223308896413E-05
1	232	68.9314058259649	0.867462158203125	0.8673095703125	4.7637939453125E-07	4.13168379509443E-07	1820627.875	2.33705377468141E-05
1	233	69.0321138257107	0.857391357421875	0.85723876953125	4.72412109375001E-07	4.04969966893987E-07	1814599.5	2.34183135034982E-05
1	234	69.1328218254564	0.847320556640625	0.84716796875	4.67834472656251E-07	3.96334371544071E-07	1810828.5	2.34656581596937E-05
1	235	69.2335298252021	0.837249755859375	0.8380126953125	4.63256835937501E-07	3.88215084967669E-07	1808959.25	2.35125426115701E-05
1	236	69.3342378249479	0.827178955078125	0.82733154296875	4.5928955078125E-07	3.79984726350813E-07	1801329	2.35589959629579E-05
1	237	69.4349458246936	0.817108154296875	0.8172607421875	4.5501708984375E-07	3.71867599824327E-07	1796110	2.36050345847616E-05
1	238	69.5356538244394	0.807037353515625	0.8074951171875	4.52270507812499E-07	3.65206204833157E-07	1785425.25	2.36507203226211E-05
1	239	69.6363618241851	0.796966552734375	0.79742431640625	4.47998046875001E-07	3.57244545057256E-07	1779972.75	2.36960531765362E-05
1	240	69.7370698239308	0.786895751953125	0.78704833984375	4.44641113281249E-07	3.49954035527844E-07	1770075.5	2.37410004046978E-05
1	241	69.8377778236766	0.776824951171875	0.77667236328125	4.40673828125E-07	3.42259198760075E-07	1762465.375	2.37855801969999E-05
1	242	69.9384858234223	0.766754150390625	0.76690673828125	4.37011718749999E-07	3.35147234409305E-07	1754888.25	2.38297743635485E-05
1	243	70.039193823168	0.756683349609375	0.75714111328125	4.33349609375E-07	3.28106807501172E-07	1747183.125	2.38736010942375E-05
1	244	70.1399018229138	0.746612548828125	0.746551513671875	4.290771484375E-07	3.20328183534002E-07	1739900.375	2.39170276472578E-05
1	245	70.2406098226595	0.736541748046875	0.7364501953125	4.254150390625E-07	3.13296993681433E-07	1731133.375	2.39600540226093E-05
1	246	70.3413178224052	0.726470947265625	0.726409912109375	4.2083740234375E-07	3.05700439184875E-07	1726106	2.40026674873661E-05
1	247	70.442025822151	0.716400146484375	0.716278076171875	4.168701171875E-07	2.98594926562146E-07	1718228.5	2.40448480326449E-05
1	248	70.5427338218967	0.706329345703125	0.706298828125	4.1351318359375E-07	2.92063873530424E-07	1708044.375	2.40866611420643E-05
1	249	70.6434418216425	0.696258544921875	0.69622802734375	4.0924072265625E-07	2.84924851712276E-07	1701267.75	2.41280904447194E-05
1	250	70.7441498213882	0.686187744140625	0.686126708984375	4.04968261718749E-07	2.77859527386681E-07	1694272.75	2.41690904658753E-05
1	251	70.8448578211339	0.676116943359375	0.67608642578125	4.00390624999999E-07	2.70698649273982E-07	1688567.125	2.4209643015638E-05
1	252	70.9455658208797	0.666046142578125	0.666015625	3.96728515625E-07	2.64227367097192E-07	1678769.375	2.42497808358166E-05
1	253	71.0462738206254	0.655975341796875	0.65594482421875	3.92761230468749E-07	2.57629693578565E-07	1670085.5	2.42895348492311E-05
1	254	71.1469818203711	0.645904541015625	0.645843505859375	3.88183593749999E-07	2.50705852522515E-07	1663757.875	2.4328857762157E-05
1	255	71.2476898201169	0.635833740234375	0.6358642578125	3.8421630859375E-07	2.44309404706655E-07	1654964.375	2.43677513935836E-05
1	256	71.3483978198626	0.625762939453125	0.625732421875	3.8116455078125E-07	2.385069990396E-07	1641633.375	2.44062921410659E-05
1	257	71.4491058196083	0.615692138671875	0.615631103515625	3.77807617187501E-07	2.3259011072696E-07	1629483.125	2.44445091084344E-05
1	258	71.5498138193541	0.605621337890625	0.605621337890625	3.74755859375001E-07	2.2696013957102E-07	1616042.375	2.44824041146785E-05
1	259	71.6505218190998	0.595550537109375	0.595550537109375	3.72314453125E-07	2.2173206559728E-07	1599590.25	2.45200208155438E-05
1	260	71.7512298188456	0.585479736328125	0.585479736328125	3.6956787109375E-07	2.1637448810452E-07	1584228	2.45573792199139E-05
1	261	71.8519378185913	0.575408935546875	0.57537841796875	3.67126464843751E-07	2.11236638847367E-07	1567248.625	2.45944738708204E-05
1	262	71.952645818337	0.565338134765625	0.565277099609375	3.65295410156249E-07	2.06493126597707E-07	1547452	2.46313538809773E-05
1	263	72.0533538180828	0.555267333984375	0.555206298828125	3.63769531249999E-07	2.01967125690317E-07	1526258.5	2.46680647251196E-05
1	264	72.1540618178285	0.545196533203125	0.545166015625	3.6163330078125E-07	1.97150171743488E-07	1507510.625	2.47045918513322E-05
1	265	72.2547698175742	0.535125732421875	0.535064697265625	3.61022949218751E-07	1.93170620832461E-07	1482079.5	2.47409807343502E-05
1	266	72.35547781732	0.525054931640625	0.52508544921875	3.59191894531249E-07	1.88606435358452E-07	1461852.25	2.47772477450781E-05
1	267	72.4561858170657	0.514984130859375	0.515045166015625	3.582763671875E-07	1.84528516911087E-07	1437563.875	2.48133746936219E-05
1	268	72.5568938168115	0.504913330078125	0.504974365234375	3.5736083984375E-07	1.80458059162447E-07	1413065.875	2.48494088737061E-05
1	269	72.6576018165572	0.494842529296875	0.494873046875	3.56445312500001E-07	1.76395175799371E-07	1388356.25	2.48853521043202E-05
1	270	72.7583098163029	0.484771728515625	0.484771728515625	3.5552978515625E-07	1.72350780758279E-07	1363519.375	2.49212025664747E-05
1	271	72.8590178160487	0.474700927734375	0.4747314453125	3.5430908203125E-07	1.68201651717936E-07	1339879.5	2.49569457082544E-05
1	272	72.9597258157944	0.464630126953125	0.46466064453125	3.53088378906249E-07	1.64066278784958E-07	1315989.625	2.4992566977744E-05
1	273	73.0604338155401	0.454559326171875	0.454559326171875	3.521728515625E-07	1.60083445166492E-07	1290728	2.50280791078694E-05
1	274	73.1611418152859	0.444488525390625	0.444488525390625	3.5125732421875E-07	1.56129843276176E-07	1265421.375	2.50635002885247E-05
1	275	73.2618498150316	0.434417724609375	0.434417724609375	3.50036621093749E-07	1.52062099800787E-07	1241063.75	2.50988123298157E-05
1	276	73.3625578147773	0.424346923828125	0.42437744140625	3.4912109375E-07	1.48159116974966E-07	1215559.5	2.51340188697213E-05
1	277	73.4632658145231	0.414276123046875	0.414276123046875	3.4820556640625E-07	1.44253249345638E-07	1189745.875	2.5169130822178E-05
1	278	73.5639738142688	0.404205322265625	0.40423583984375	3.4759521484375E-07	1.40510437063313E-07	1162950	2.52041681960691E-05
1	279	73.6646818140146	0.394134521484375	0.3941650390625	3.47290039062501E-07	1.36889596547007E-07	1134973.625	2.52391582762357E-05
1	280	73.7653898137603	0.384063720703125	0.38409423828125	3.4759521484375E-07	1.33509317379321E-07	1105004.375	2.52741483564023E-05
1	281	73.866097813506	0.373992919921875	0.37396240234375	3.466796875E-07	1.29645172819437E-07	1078697.25	2.5309107513749E-05
1	282	73.9668058132518	0.363922119140625	0.36395263671875	3.4637451171875E-07	1.26063909533514E-07	1050749	2.53440066444455E-05
1	283	74.0675138129975	0.353851318359375	0.3538818359375	3.460693359375E-07	1.22467653795866E-07	1022575	2.53788730333326E-05
1	284	74.1682218127432	0.343780517578125	0.343841552734375	3.45764160156251E-07	1.18888088707081E-07	994439.5	2.54137103183893E-05
1	285	74.268929812489	0.333709716796875	0.333770751953125	3.4515380859375E-07	1.15202247741308E-07	967020.3125	2.54485003097216E-05
1	286	74.3696378122347	0.323638916015625	0.32366943359375	3.44238281250001E-07	1.1141940348125E-07	940248.3125	2.54832139034988E-05
1	287	74.4703458119805	0.313568115234375	0.313629150390625	3.436279296875E-07	1.07771732871242E-07	912699.8125	2.55178510997212E-05
1	288	74.5710538117262	0.303497314453125	0.30352783203125	3.43017578125E-07	1.04115379429004E-07	884875.4375	2.55524264503038E-05
1	289	74.6717618114719	0.293426513671875	0.293426513671875	3.4210205078125E-07	1.0038181130767E-07	857716.3125	2.55869254033314E-05
1	290	74.7724698112177	0.283355712890625	0.283355712890625	3.40881347656249E-07	9.65906750138856E-08	831244.4375	2.56213152169948E-05
1	291	74.8731778109634	0.273284912109375	0.273284912109375	3.3905029296875E-07	9.26573235915384E-08	806030.625	2.56555522355484E-05
1	292	74.9738858107091	0.263214111328125	0.263214111328125	3.375244140625E-07	8.88411832988822E-08	779837.3125	2.56896219070768E-05
1	293	75.0745938104549	0.253143310546875	0.253204345703125	3.3599853515625E-07	8.50762873483291E-08	753587.6875	2.57235351455165E-05
1	294	75.1753018102006	0.243072509765625	0.24310302734375	3.33251953124999E-07	8.10145550644847E-08	729487.25	2.5757235562196E-05
1	295	75.2760098099463	0.233001708984375	0.2330322265625	3.30810546875E-07	7.70895169921459E-08	704428.0625	2.57906740444014E-05
1	296	75.3767178096921	0.222930908203125	0.222991943359375	3.2684326171875E-07	7.28834166352499E-08	682259.5625	2.58237887464929E-05
1	297	75.4774258094378	0.212860107421875	0.212921142578125	3.2318115234375E-07	6.88120991299002E-08	658829.0625	2.58565196418203E-05
1	298	75.5781338091836	0.202789306640625	0.202911376953125	3.17993164062499E-07	6.45244284669388E-08	638099.8125	2.58888067037333E-05
1	299	75.6788418089293	0.192718505859375	0.1927490234375	3.1097412109375E-07	5.99399569978232E-08	619823.375	2.59204771282384E-05
1	300	75.779549808675	0.182647705078125	0.18267822265625	3.01513671875001E-07	5.50799796883439E-08	605870.4375	2.59513180935755E-05
1	301	75.8802578084208	0.172576904296875	0.172698974609375	2.8839111328125E-07	4.98048500219284E-08	598836	2.59810221905354E-05
1	302	75.9809658081665	0.162506103515625	0.162567138671875	2.7008056640625E-07	4.3906222657597E-08	601920.9375	2.60091437667143E-05
1	303	76.0816738079122	0.152435302734375	0.15252685546875	2.46582031250001E-07	3.76103805876937E-08	618564.375	2.60351589531638E-05
1	304	76.182381807658	0.142364501953125	0.142486572265625	2.12707519531249E-07	3.03079659147443E-08	669870.875	2.60582874034299E-05
1	305	76.2830898074037	0.132293701171875	0.132415771484375	1.64794921875E-07	2.18214459835053E-08	803518.5625	2.60772958426969E-05
1	306	76.3837978071494	0.122222900390625	0.122283935546875	9.918212890625E-08	1.21283800780247E-08	1232923.125	2.60905871982686E-05
1	307	76.4845058068952	0.112152099609375	0.112152099609375	9.1552734375E-09	1.02678310298643E-09	12250001	2.60960423474899E-05
1	308	76.5852138066409	0.102081298828125	0.10211181640625	-1.07421874999999E-07	-1.0969042563147E-08	-950568.25	2.60910946963122E-05
1	309	76.6859218063867	0.092010498046875	0.09210205078125	-2.6702880859375E-07	-2.45939002496698E-08	-344914.28125	2.60722390521551E-05
1	310	76.7866298061324	0.081939697265625	0.08209228515625	-4.62951660156249E-07	-3.800476022775E-08	-177323.671875	2.60354827332776E-05
1	311	76.8873378058781	0.071868896484375	0.0718994140625	-6.9549560546875E-07	-5.00057275587551E-08	-103378.671875	2.59771495620953E-05
1	312	76.9880458056239	0.061798095703125	0.061859130859375	-9.5550537109375E-07	-5.91067319533067E-08	-64739.69921875	2.58940144703956E-05
1	313	77.0887538053696	0.051727294921875	0.051849365234375	-1.22467041015625E-06	-6.34983834402192E-08	-42337.40234375	2.57842348219128E-05
1	314	77.1894618051153	0.041656494140625	0.04180908203125	-1.47216796875E-06	-6.15499899936367E-08	-28399.669921875	2.56484381679911E-05
1	315	77.2901698048611	0.031585693359375	0.031732177734375	-1.68182373046875E-06	-5.33679305192436E-08	-18867.720703125	2.54896222031675E-05
1	316	77.3908778046068	0.021514892578125	0.0216644287109375	-1.837158203125E-06	-3.98009838420421E-08	-11792.359375	2.53124271694105E-05
1	317	77.4915858043526	0.011444091796875	0.0115936279296875	-1.92047119140625E-06	-2.22652261072653E-08	-6036.86669921875	2.51232158916537E-05
1	318	77.5922938040983	0.001373291015625	0.001513671875	-1.93756103515625E-06	-2.93283131114208E-09	-781.225402832031	2.4928947823355E-05
1	319	77.693001803844	-0.008697509765625	-0.0085479736328125	-1.90216064453125E-06	1.6259619428638E-08	4493.8232421875	2.47356019826839E-05
1	320	77.7937098035898	-0.018768310546875	-0.018603515625	-1.83319091796875E-06	3.41037917905851E-08	10148.16015625	2.4547513021389E-05
1	321	77.8944178033355	-0.028839111328125	-0.028662109375	-1.7474365234375E-06	5.00852159746046E-08	16402.375	2.43672147917096E-05
1	322	77.9951258030812	-0.038909912109375	-0.0387359619140625	-1.6558837890625E-06	6.41422488456556E-08	23392.92578125	2.41958423430333E-05
1	323	78.095833802827	-0.048980712890625	-0.0488037109375	-1.56524658203125E-06	7.63898384548156E-08	31179.568359375	2.40336466958979E-05
1	324	78.1965418025727	-0.059051513671875	-0.058929443359375	-1.4813232421875E-06	8.72935572715505E-08	39781.625	2.38802385865711E-05
1	325	78.2972498023184	-0.069122314453125	-0.069061279296875	-1.4044189453125E-06	9.69909663695034E-08	49174.2734375	2.37349304370582E-05
1	326	78.3979578020642	-0.079193115234375	-0.079071044921875	-1.33544921875E-06	1.05595361787891E-07	59209.328125	2.35969673667569E-05
1	327	78.4986658018099	-0.089263916015625	-0.08917236328125	-1.27410888671875E-06	1.1361530027898E-07	69988.0234375	2.34655653912341E-05
1	328	78.5993738015557	-0.099334716796875	-0.099212646484375	-1.219482421875E-06	1.20988076446338E-07	81356.3515625	2.33400041906862E-05
1	329	78.7000818013014	-0.109405517578125	-0.10931396484375	-1.1712646484375E-06	1.2803558036012E-07	93329.859375	2.32196198339807E-05
1	330	78.8007898010471	-0.119476318359375	-0.11932373046875	-1.129150390625E-06	1.34734435164319E-07	105675.671875	2.31037847697735E-05
1	331	78.9014978007929	-0.129547119140625	-0.129364013671875	-1.09130859375E-06	1.41176059287318E-07	118540.265625	2.29919751291163E-05
1	332	79.0022058005386	-0.139617919921875	-0.139495849609375	-1.0577392578125E-06	1.47550238693839E-07	131881.125	2.28837634494994E-05
1	333	79.1029138002843	-0.149688720703125	-0.14959716796875	-1.0284423828125E-06	1.53852070639005E-07	145459.9375	2.27787149924552E-05
1	334	79.2036218000301	-0.159759521484375	-0.15960693359375	-1.0015869140625E-06	1.59860206849771E-07	159354.0625	2.26764950639335E-05
1	335	79.3043297997758	-0.169830322265625	-0.169647216796875	-9.7808837890625E-07	1.65929961326583E-07	173447.75	2.25768108066404E-05
1	336	79.4050377995216	-0.179901123046875	-0.17974853515625	-9.57641601562501E-07	1.7213466207977E-07	187699.1875	2.2479338440462E-05
1	337	79.5057457992673	-0.189971923828125	-0.189849853515625	-9.3902587890625E-07	1.78273921846994E-07	202177.4375	2.23838342208182E-05
1	338	79.606453799013	-0.200042724609375	-0.199859619140625	-9.234619140625E-07	1.84562736649241E-07	216424.328125	2.22900507651502E-05
1	339	79.7071617987588	-0.189971923828125	-0.189788818359375	-8.1207275390625E-07	1.54122332673978E-07	233709.125	2.22026592382463E-05
2	340	79.8078697985045	-0.179901123046875	-0.17974853515625	-7.3883056640625E-07	1.32803705810147E-07	243287.90625	2.21245645661838E-05
2	341	79.9085777982502	-0.169830322265625	-0.169647216796875	-6.81152343749999E-07	1.15555593538375E-07	249059.15625	2.20530637307093E-05
2	342	80.009285797996	-0.159759521484375	-0.15966796875	-6.33544921875E-07	1.01156828691273E-07	252023.125	2.19868634303566E-05
2	343	80.1099937977417	-0.149688720703125	-0.1495361328125	-5.908203125E-07	8.83489832403939E-08	253099.171875	2.19252106035128E-05
2	344	80.2107017974874	-0.139617919921875	-0.1395263671875	-5.5419921875E-07	7.73254029695636E-08	251762.109375	2.18675540963886E-05
2	345	80.3114097972332	-0.129547119140625	-0.129425048828125	-5.206298828125E-07	6.73825510943971E-08	248593.1875	2.18134318856755E-05
2	346	80.4121177969789	-0.119476318359375	-0.11932373046875	-4.89501953125E-07	5.84091957023247E-08	243765.59375	2.17625693039736E-05
2	347	80.5128257967247	-0.109405517578125	-0.1092529296875	-4.6051025390625E-07	5.03120922701328E-08	237243.203125	2.17147317016497E-05
2	348	80.6135337964704	-0.099334716796875	-0.0992431640625	-4.3212890625E-07	4.28858406564814E-08	229661.015625	2.16697844734881E-05
2	349	80.7142417962161	-0.089263916015625	-0.089111328125	-4.0313720703125E-07	3.59240921454784E-08	221044.671875	2.16277239815099E-05
2	350	80.8149497959619	-0.079193115234375	-0.079132080078125	-3.741455078125E-07	2.96069107008634E-08	211500.828125	2.15885847865138E-05
2	351	80.9156577957076	-0.069122314453125	-0.069000244140625	-3.41186523437501E-07	2.3541952387518E-08	202236.140625	2.15525651583448E-05
2	352	81.0163657954533	-0.059051513671875	-0.05902099609375	-3.03955078125E-07	1.79397297017658E-08	194176.71875	2.15200798265869E-05
2	353	81.1170737951991	-0.048980712890625	-0.0488006591796875	-2.5970458984375E-07	1.26737553785006E-08	187908.34375	2.14916981349234E-05
2	354	81.2177817949448	-0.038909912109375	-0.0387359619140625	-2.03857421875001E-07	7.89661314115619E-09	190014.984375	2.14683550439076E-05
2	355	81.3184897946905	-0.028839111328125	-0.028662109375	-1.3275146484375E-07	3.80493725415931E-09	215908.046875	2.14514057006454E-05
2	356	81.4191977944363	-0.018768310546875	-0.0186065673828125	-3.84521484374997E-08	7.15462467049122E-10	483888.9375	2.1442785509862E-05
2	357	81.519905794182	-0.008697509765625	-0.00855712890625	8.48388671875006E-08	-7.2597711175959E-10	-100863.3046875	2.14451210922562E-05
2	358	81.6206137939278	0.001373291015625	0.00151977539062501	2.4261474609375E-07	3.68719887955393E-10	6264.1513671875	2.14616102311993E-05
2	359	81.7213217936735	0.011444091796875	0.0115875244140625	4.3914794921875E-07	5.08863751136346E-09	26386.380859375	2.1495938199223E-05
2	360	81.8220297934192	0.021514892578125	0.02166748046875	6.73828125000001E-07	1.46001566392329E-08	32155.798828125	2.15519812627463E-05
2	361	81.922737793165	0.031585693359375	0.0317230224609375	9.36279296875001E-07	2.97016082839718E-08	33882.0078125	2.16330572584411E-05
2	362	82.0234457929107	0.041656494140625	0.041802978515625	1.21185302734375E-06	5.06590680515728E-08	34495.08984375	2.1741223463323E-05
2	363	82.1241537926564	0.051727294921875	0.051849365234375	1.4739990234375E-06	7.64259127095102E-08	35175.984375	2.1876467144466E-05
2	364	82.2248617924022	0.061798095703125	0.061859130859375	1.69921875E-06	1.05112192727574E-07	36404.453125	2.20362508116523E-05
2	365	82.3255697921479	0.071868896484375	0.0718994140625	1.86859130859375E-06	1.34350614189316E-07	38477.87109375	2.22159051190829E-05
2	366	82.4262777918937	0.081939697265625	0.08203125	1.9720458984375E-06	1.6176937833734E-07	41597.03125	2.24092964344891E-05
2	367	82.5269857916394	0.092010498046875	0.09210205078125	2.0086669921875E-06	1.85002349439856E-07	45852.32421875	2.26097417908022E-05
2	368	82.6276937913851	0.102081298828125	0.1021728515625	1.99188232421875E-06	2.03516293595385E-07	51294.62109375	2.28111857722979E-05
2	369	82.7284017911309	0.112152099609375	0.11224365234375	1.9384765625E-06	2.17581686001722E-07	57903.0234375	2.30090936383931E-05
2	370	82.8291097908766	0.122222900390625	0.122314453125	1.8646240234375E-06	2.28070462071628E-07	65597.3828125	2.3200595023809E-05
2	371	82.9298177906223	0.132293701171875	0.132354736328125	1.7822265625E-06	2.35886119526185E-07	74263.703125	2.33842292800546E-05
2	372	83.0305257903681	0.142364501953125	0.142425537109375	1.69891357421875E-06	2.41968677983095E-07	83833.3046875	2.35595180129167E-05
2	373	83.1312337901138	0.152435302734375	0.152435302734375	1.62017822265625E-06	2.46972348350027E-07	94085.515625	2.37266485783039E-05
2	374	83.2319417898595	0.162506103515625	0.162567138671875	1.54693603515625E-06	2.51480969382101E-07	105089.765625	2.38861248362809E-05
2	375	83.3326497896053	0.172576904296875	0.172637939453125	1.480712890625E-06	2.55627213618936E-07	116591.1015625	2.40385797951603E-05
2	376	83.433357789351	0.182647705078125	0.182708740234375	1.422119140625E-06	2.59833598192927E-07	128476.3984375	2.41847483266611E-05
2	377	83.5340657890968	0.192718505859375	0.192779541015625	1.36962890625E-06	2.64036430053238E-07	140753.125	2.43253234657459E-05
2	378	83.6347737888425	0.202789306640625	0.202850341796875	1.32293701171875E-06	2.68358235189226E-07	153333.328125	2.4460905478918E-05
2	379	83.7354817885882	0.212860107421875	0.212890625	1.2811279296875E-06	2.72740123818949E-07	166174.375	2.45920309680514E-05
2	380	83.836189788334	0.222930908203125	0.222930908203125	1.243896484375E-06	2.77302973472615E-07	179219.828125	2.47191765083699E-05
2	381	83.9368977880797	0.233001708984375	0.2330322265625	1.2103271484375E-06	2.82045220956206E-07	192536.5625	2.4842755010468E-05
2	382	84.0376057878254	0.243072509765625	0.24310302734375	1.1810302734375E-06	2.87112044361493E-07	205839.796875	2.49631702899933E-05
2	383	84.1383137875712	0.253143310546875	0.25311279296875	1.15386962890625E-06	2.92059155526658E-07	219359.96875	2.50807424890809E-05
2	384	84.2390217873169	0.263214111328125	0.263214111328125	1.12945556640625E-06	2.97288636375015E-07	233045.125	2.51957153523108E-05
2	385	84.3397297870627	0.273284912109375	0.273345947265625	1.10748291015625E-06	3.02725936762727E-07	246817.328125	2.5308354452136E-05
2	386	84.4404377868084	0.283355712890625	0.283355712890625	1.08734130859375E-06	3.08104375790208E-07	260595.015625	2.54188726103166E-05
2	387	84.5411457865541	0.293426513671875	0.293426513671875	1.06903076171875E-06	3.13681965735668E-07	274479.03125	2.55274553637719E-05
2	388	84.6418537862999	0.303497314453125	0.303558349609375	1.05224609375E-06	3.19418063554622E-07	288486.09375	2.56342700595269E-05
2	389	84.7425617860456	0.313568115234375	0.313568115234375	1.036376953125E-06	3.24974763543651E-07	302561.84375	2.57394403888611E-05
2	390	84.8432697857913	0.323638916015625	0.323760986328125	1.02264404296875E-06	3.31092252281451E-07	316592.0625	2.58431209658738E-05
2	391	84.9439777855371	0.333709716796875	0.333709716796875	1.009521484375E-06	3.36887126195506E-07	330562.28125	2.59454482147703E-05
2	392	85.0446857852828	0.343780517578125	0.343841552734375	9.97314453125001E-07	3.4291812767151E-07	344767.46875	2.60465003520949E-05
2	393	85.1453937850285	0.353851318359375	0.353851318359375	9.86328124999999E-07	3.49013504319373E-07	358756.1875	2.61463846982224E-05
2	394	85.2461017847743	0.363922119140625	0.363922119140625	9.765625E-07	3.55392671735899E-07	372656.28125	2.62452231254429E-05
2	395	85.34680978452	0.373992919921875	0.3740234375	9.674072265625E-07	3.6183297424941E-07	386624.59375	2.63431102212053E-05
2	396	85.4475177842658	0.384063720703125	0.384124755859375	9.58862304687499E-07	3.68322758959039E-07	400604.71875	2.644010601216E-05
2	397	85.5482257840115	0.394134521484375	0.3941650390625	9.50927734375E-07	3.74822462845259E-07	414505.78125	2.65362723439466E-05
2	398	85.6489337837572	0.404205322265625	0.404205322265625	9.442138671875E-07	3.81656263925834E-07	428086.625	2.66317001660354E-05
2	399	85.749641783503	0.414276123046875	0.414337158203125	9.3841552734375E-07	3.88820410535118E-07	441528.46875	2.67264967988012E-05
2	400	85.8503497832487	0.424346923828125	0.42431640625	9.32922363281249E-07	3.95854243606664E-07	454825	2.68207259068731E-05
2	401	85.9510577829944	0.434417724609375	0.4344482421875	9.28344726562499E-07	4.03317727659669E-07	467981.59375	2.69144493358908E-05
2	402	86.0517657827402	0.444488525390625	0.444488525390625	9.2376708984375E-07	4.10603860245828E-07	481169.5	2.70077107416E-05
2	403	86.1524737824859	0.454559326171875	0.45458984375	9.19494628906251E-07	4.17992907841835E-07	494391	2.71005264949054E-05
2	404	86.2531817822316	0.464630126953125	0.46466064453125	9.161376953125E-07	4.25693116312686E-07	507195.21875	2.71929566224571E-05
2	405	86.3538897819774	0.474700927734375	0.474700927734375	9.124755859375E-07	4.33152990808594E-07	520234.125	2.7285035685054E-05
2	406	86.4545977817231	0.484771728515625	0.48480224609375	9.08813476562501E-07	4.40594789097304E-07	533445.3125	2.73767436738126E-05
2	407	86.5553057814689	0.494842529296875	0.49481201171875	9.0606689453125E-07	4.48332770019988E-07	546109.8125	2.74681315204361E-05
2	408	86.6560137812146	0.504913330078125	0.50494384765625	9.0362548828125E-07	4.56280105254336E-07	558797.75	2.75592556135962E-05
2	409	86.7567217809603	0.514984130859375	0.51495361328125	9.0179443359375E-07	4.64382281961662E-07	571032.1875	2.7650166884996E-05
2	410	86.8574297807061	0.525054931640625	0.5250244140625	9.002685546875E-07	4.72662975425919E-07	583186.4375	2.77409071713919E-05
2	411	86.9581377804518	0.535125732421875	0.53509521484375	8.9874267578125E-07	4.80912888178864E-07	595382	2.78314946626779E-05
2	412	87.0588457801975	0.545196533203125	0.545196533203125	8.978271484375E-07	4.89492265387526E-07	607240	2.79219584626844E-05
2	413	87.1595537799433	0.555267333984375	0.5552978515625	8.97216796875E-07	4.98222561873263E-07	618911.625	2.80123476841254E-05
2	414	87.260261779689	0.565338134765625	0.565277099609375	8.96606445312501E-07	5.068310997558E-07	630462.9375	2.81026732409373E-05
2	415	87.3609697794348	0.575408935546875	0.575439453125	8.96606445312501E-07	5.15942701895256E-07	641797.1875	2.81929678749293E-05
2	416	87.4616777791805	0.585479736328125	0.585479736328125	8.9691162109375E-07	5.25123596162302E-07	652773.0625	2.8283278879826E-05
2	417	87.5623857789262	0.595550537109375	0.59552001953125	8.9691162109375E-07	5.34128844265069E-07	663967.3125	2.83736062556272E-05
2	418	87.663093778672	0.605621337890625	0.6055908203125	8.978271484375E-07	5.43715884759877E-07	674507.125	2.84639772871742E-05
2	419	87.7638017784177	0.615692138671875	0.615631103515625	8.984375E-07	5.5310601965175E-07	685224.1875	2.85544265352655E-05
2	420	87.8645097781634	0.625762939453125	0.625823974609375	8.9996337890625E-07	5.63218634397344E-07	695388.25	2.86449831037316E-05
2	421	87.9652177779092	0.635833740234375	0.635833740234375	9.014892578125E-07	5.73197269204684E-07	705314.875	2.87356942862971E-05
2	422	88.0659257776549	0.645904541015625	0.645843505859375	9.02404785156249E-07	5.82812219818152E-07	715691.625	2.88265273411525E-05
2	423	88.1666337774006	0.655975341796875	0.65594482421875	9.033203125E-07	5.92528294873773E-07	726148.625	2.89174531644676E-05
2	424	88.2673417771464	0.666046142578125	0.666015625	9.0484619140625E-07	6.02641705427231E-07	736054	2.90085008600727E-05
2	425	88.3680497768921	0.676116943359375	0.676025390625	9.0606689453125E-07	6.12524218013277E-07	746109.8125	2.90996886178618E-05
2	426	88.4687577766379	0.686187744140625	0.6861572265625	9.07287597656251E-07	6.22541961092793E-07	756273.125	2.9190998247941E-05
2	427	88.5694657763836	0.696258544921875	0.696197509765625	9.08203125E-07	6.32288731594599E-07	766565.875	2.9282415198395E-05
2	428	88.6701737761293	0.706329345703125	0.706298828125	9.09423828125E-07	6.42324948785244E-07	776644.3125	2.93739394692238E-05
2	429	88.7708817758751	0.716400146484375	0.716339111328125	9.1064453125E-07	6.52330299999448E-07	786628.6875	2.94655874313321E-05
2	430	88.8715897756208	0.726470947265625	0.726409912109375	9.1094970703125E-07	6.61722879158333E-07	797420.5	2.95573117909953E-05
2	431	88.9722977753665	0.736541748046875	0.736480712890625	9.11560058593749E-07	6.71346413128049E-07	807934.375	2.96490816253936E-05
2	432	89.0730057751123	0.746612548828125	0.746551513671875	9.11560058593749E-07	6.80526511587232E-07	818982.25	2.97408842016011E-05
2	433	89.173713774858	0.756683349609375	0.75714111328125	9.1217041015625E-07	6.90641684286675E-07	830043.5	2.98327158816392E-05
2	434	89.2744217746038	0.766754150390625	0.76690673828125	9.1217041015625E-07	6.99549616456352E-07	840749.4375	2.9924578484497E-05
2	435	89.3751297743495	0.776824951171875	0.7769775390625	9.1278076171875E-07	7.09210155491746E-07	851220.3125	3.00164720101748E-05
2	436	89.4758377740952	0.786895751953125	0.7867431640625	9.124755859375E-07	7.17883892775717E-07	862207.375	3.01083819067571E-05
2	437	89.576545773841	0.796966552734375	0.797119140625	9.124755859375E-07	7.27351732621173E-07	873578.625	3.02002754324349E-05
2	438	89.6772537735867	0.807037353515625	0.8074951171875	9.130859375E-07	7.37312404908153E-07	884358.3125	3.02921998809325E-05
2	439	89.7779617733324	0.817108154296875	0.81695556640625	9.1278076171875E-07	7.45701299820212E-07	895018.375	3.03841388813453E-05
2	440	89.8786697730782	0.827178955078125	0.8270263671875	9.11865234375001E-07	7.54136578962061E-07	906961.25	3.04760178551078E-05
2	441	89.9793777728239	0.837249755859375	0.83709716796875	9.124755859375E-07	7.63830712458002E-07	917391.3125	3.05678804579657E-05
2	442	90.0800857725696	0.847320556640625	0.84716796875	9.130859375E-07	7.73537124132417E-07	927807.5	3.06598049064633E-05
2	443	90.1807937723154	0.857391357421875	0.85693359375	9.136962890625E-07	7.82977053859213E-07	937875.75	3.07517912006006E-05
2	444	90.2815017720611	0.867462158203125	0.867919921875	9.14611816406249E-07	7.93809817878355E-07	948948.9375	3.08438538922928E-05
2	445	90.3822097718069	0.877532958984375	0.87738037109375	9.1522216796875E-07	8.02997931259597E-07	958652.9375	3.093599298154E-05
2	446	90.4829177715526	0.887603759765625	0.887451171875	9.161376953125E-07	8.13027440926817E-07	968687.5625	3.10282084683422E-05
2	447	90.5836257712983	0.897674560546875	0.89752197265625	9.17663574218749E-07	8.23623224732728E-07	978051.25	3.11205476464238E-05
2	448	90.6843337710441	0.907745361328125	0.90789794921875	9.19189453124999E-07	8.34530169413483E-07	987715.875	3.12130396196153E-05
2	449	90.7850417707898	0.917816162109375	0.91796875	9.2041015625E-07	8.44907731334388E-07	997347.5	3.13056734739803E-05
2	450	90.8857497705355	0.927886962890625	0.9283447265625	9.2315673828125E-07	8.57007705690194E-07	1005619.8125	3.13985037792008E-05
2	451	90.9864577702813	0.937957763671875	0.93780517578125	9.246826171875E-07	8.6717210479037E-07	1014191.4375	3.1491548725171E-05
2	452	91.087165770027	0.948028564453125	0.948486328125	9.2620849609375E-07	8.78496109635307E-07	1024052.75	3.15847501042299E-05
2	453	91.1878737697728	0.958099365234375	0.95794677734375	9.27734375E-07	8.88720137481869E-07	1032565.8125	3.16781006404199E-05
2	454	91.2885817695185	0.968170166015625	0.96832275390625	9.29870605468749E-07	9.00414818261197E-07	1041352.1875	3.17716403515078E-05
2	455	91.3892897692642	0.978240966796875	0.97869873046875	9.31701660156251E-07	9.11855238427961E-07	1050442.125	3.18653765134513E-05
2	456	91.48999776901	0.988311767578125	0.9881591796875	9.33837890625E-07	9.22780429846171E-07	1058170	3.19593164022081E-05
2	457	91.5907057687557	0.998382568359375	0.9979248046875	9.36279296875001E-07	9.34336298996641E-07	1065841	3.20534818456508E-05
2	458	91.6914137685014	1.00845336914063	1.0089111328125	9.3841552734375E-07	9.46777845456381E-07	1075122	3.21478801197372E-05
2	459	91.7921217682472	1.01852416992188	1.01837158203125	9.40551757812499E-07	9.57831161940703E-07	1082738.5	3.22424930345733E-05
2	460	91.8928297679929	1.02859497070313	1.0284423828125	9.429931640625E-07	9.69814095697075E-07	1090614.875	3.2337338780053E-05
2	461	91.9935377677386	1.03866577148438	1.03851318359375	9.45434570312501E-07	9.8184625585418E-07	1098450.625	3.24324282701127E-05
2	462	92.0942457674844	1.04873657226563	1.048583984375	9.4757080078125E-07	9.93607500276994E-07	1106602.25	3.25277505908161E-05
2	463	92.1949537672301	1.05880737304688	1.0589599609375	9.503173828125E-07	1.00634804311994E-06	1114322.375	3.26233166560996E-05
2	464	92.2956617669759	1.06887817382813	1.0687255859375	9.5245361328125E-07	1.01791158613196E-06	1122076.25	3.27191264659632E-05
2	465	92.3963697667216	1.07894897460938	1.07879638671875	9.55810546875E-07	1.03112495253299E-06	1128671.875	3.28152164001949E-05
2	466	92.4970777664673	1.08901977539063	1.0882568359375	9.5794677734375E-07	1.04249215837626E-06	1136030.625	3.2911582820816E-05
2	467	92.5977857662131	1.09909057617188	1.0986328125	9.613037109375E-07	1.05611979961395E-06	1142857.125	3.30082220898475E-05
2	468	92.6984937659588	1.10916137695313	1.1090087890625	9.65270996093751E-07	1.07049390862812E-06	1148909.375	3.31052324327175E-05
2	469	92.7992017657045	1.11923217773438	1.119384765625	9.6893310546875E-07	1.08460903902596E-06	1155275.5	3.32026284013409E-05
2	470	92.8999097654503	1.12930297851563	1.129150390625	9.722900390625E-07	1.09786162738601E-06	1161330.875	3.33003772539087E-05
2	471	93.000617765196	1.13937377929688	1.13922119140625	9.771728515625E-07	1.11321594431502E-06	1165833.875	3.33985408360604E-05
2	472	93.1013257649417	1.14944458007813	1.1492919921875	9.814453125E-07	1.12796715256991E-06	1171019.875	3.34971664415207E-05
2	473	93.2020337646875	1.15951538085938	1.15966796875	9.8541259765625E-07	1.14275144369458E-06	1176834.875	3.35962031385861E-05
2	474	93.3027417644332	1.16958618164063	1.16973876953125	9.906005859375E-07	1.15874388484372E-06	1180838	3.36957054969389E-05
2	475	93.403449764179	1.17965698242188	1.17950439453125	9.9639892578125E-07	1.17525678433594E-06	1183767.375	3.37957571900915E-05
2	476	93.5041577639247	1.18972778320313	1.18927001953125	1.0028076171875E-06	1.19260903375107E-06	1185940.375	3.38964237016626E-05
2	477	93.6048657636704	1.19979858398438	1.1993408203125	1.009521484375E-06	1.21076038794854E-06	1188029	3.39977559633553E-05
2	478	93.7055737634162	1.20986938476563	1.209716796875	1.01593017578125E-06	1.22898779864045E-06	1190748	3.40997430612333E-05
2	479	93.8062817631619	1.21994018554688	1.2200927734375	1.0235595703125E-06	1.24883763419348E-06	1192009.625	3.42024395649787E-05
2	480	93.9069897629076	1.23001098632813	1.23016357421875	1.03118896484375E-06	1.26853115034464E-06	1192956.5	3.43059036822524E-05
2	481	94.0076977626534	1.24008178710938	1.240234375	1.03973388671875E-06	1.28951376154873E-06	1192838.25	3.44101827067789E-05
2	482	94.1084057623991	1.25015258789063	1.2506103515625	1.048583984375E-06	1.31136994241388E-06	1192665.875	3.45153384841979E-05
2	483	94.2091137621449	1.26022338867188	1.26007080078125	1.0589599609375E-06	1.33436446958513E-06	1189913.625	3.46214619639795E-05
2	484	94.3098217618906	1.27029418945313	1.2701416015625	1.07025146484375E-06	1.3593707990367E-06	1186769.375	3.47286768374033E-05
2	485	94.4105297616363	1.28036499023438	1.28021240234375	1.08184814453125E-06	1.38499547119864E-06	1183356.875	3.4837044950109E-05
2	486	94.5112377613821	1.29043579101563	1.290283203125	1.094970703125E-06	1.41282225740724E-06	1178372.375	3.49466572515666E-05
2	487	94.6119457611278	1.30050659179688	1.30035400390625	1.109619140625E-06	1.44289765557915E-06	1171892.25	3.50576665368862E-05
2	488	94.7126537608735	1.31057739257813	1.31072998046875	1.126708984375E-06	1.47681123507937E-06	1163326.125	3.51702728949022E-05
2	489	94.8133617606193	1.32064819335938	1.32080078125	1.1456298828125E-06	1.51314884533349E-06	1152903.625	3.52846946043428E-05
2	490	94.914069760365	1.33071899414063	1.33026123046875	1.1663818359375E-06	1.5515925042564E-06	1140502.375	3.54011135641485E-05
2	491	95.0147777601107	1.34078979492188	1.3409423828125	1.190185546875E-06	1.59597027504788E-06	1126666.625	3.55197771568783E-05
2	492	95.1154857598565	1.35086059570313	1.3507080078125	1.217041015625E-06	1.64386699452734E-06	1109829.5	3.56409909727518E-05
2	493	95.2161937596022	1.36093139648438	1.3604736328125	1.2469482421875E-06	1.69644010838965E-06	1091042.625	3.57650606019888E-05
2	494	95.316901759348	1.37100219726563	1.370849609375	1.2799072265625E-06	1.75456034412491E-06	1071053.875	3.58922989107668E-05
2	495	95.4176097590937	1.38107299804688	1.38153076171875	1.31622314453125E-06	1.81840277946321E-06	1049617.5	3.60230260412209E-05
2	496	95.5183177588394	1.39114379882813	1.3909912109375	1.35711669921875E-06	1.88773731224501E-06	1024960.6875	3.61576385330409E-05
2	497	95.6190257585852	1.40121459960938	1.40106201171875	1.4031982421875E-06	1.96596761270484E-06	998477.625	3.62966311513446E-05
2	498	95.7197337583309	1.41128540039063	1.4111328125	1.45599365234375E-06	2.05460037250305E-06	969188.875	3.64406041626353E-05
2	499	95.8204417580766	1.42135620117188	1.4208984375	1.51702880859375E-06	2.15554382521077E-06	936632.5	3.65903069905471E-05
2	500	95.9211497578224	1.43142700195313	1.431884765625	1.5875244140625E-06	2.27315194933908E-06	901960.8125	3.67466309398878E-05
2	501	96.0218577575681	1.44149780273438	1.44134521484375	1.66961669921875E-06	2.40649387706071E-06	863279.125	3.6910641938448E-05
2	502	96.1225657573139	1.45156860351563	1.45172119140625	1.766357421875E-06	2.56425846600905E-06	821872.875	3.70836569345556E-05
2	503	96.2232737570596	1.46163940429688	1.46148681640625	1.8804931640625E-06	2.74831586466462E-06	777182.75	3.72672911908012E-05
2	504	96.3239817568053	1.47171020507813	1.4715576171875	2.01812744140625E-06	2.96979078484583E-06	729169.875	3.74636038031895E-05
2	505	96.4246897565511	1.48178100585938	1.48162841796875	2.1832275390625E-06	3.23473182106682E-06	678641.3125	3.76751559088007E-05
2	506	96.5253977562968	1.49185180664063	1.49169921875	2.3773193359375E-06	3.54624535248149E-06	627471.125	3.79047996830195E-05
2	507	96.6261057560425	1.50192260742188	1.50146484375	2.5946044921875E-06	3.89570732295397E-06	578687.375	3.81551544705871E-05
2	508	96.7268137557883	1.49185180664063	1.49169921875	2.16400146484375E-06	3.22803930430382E-06	689324.5	3.83947699447162E-05
2	509	96.827521755534	1.48178100585938	1.48193359375	1.84539794921875E-06	2.73475711765059E-06	803042.8125	3.85966595786158E-05
2	510	96.9282297552797	1.47171020507813	1.47125244140625	1.59759521484375E-06	2.35046582020004E-06	920916.9375	3.87700274586678E-05
2	511	97.0289377550255	1.46163940429688	1.461181640625	1.40045166015625E-06	2.04631419364887E-06	1043364.5625	3.89209926652256E-05
2	512	97.1296457547712	1.45156860351563	1.45172119140625	1.24237060546875E-06	1.80357562840072E-06	1168509	3.90540699299891E-05
2	513	97.230353754517	1.44149780273438	1.44134521484375	1.114501953125E-06	1.60638205670693E-06	1293264	3.9172748074634E-05
2	514	97.3310617542627	1.43142700195313	1.43157958984375	1.0113525390625E-06	1.44783166433626E-06	1415510	3.92797919630539E-05
2	515	97.4317697540084	1.42135620117188	1.4208984375	9.2926025390625E-07	1.3203843991505E-06	1529064.125	3.93775080738124E-05
2	516	97.5324777537542	1.41128540039063	1.41143798828125	8.624267578125E-07	1.21726191082416E-06	1636588.875	3.94677263102494E-05
2	517	97.6331857534999	1.40121459960938	1.40106201171875	8.08105468750001E-07	1.13220585262752E-06	1733761.375	3.95518472942058E-05
2	518	97.7338937532456	1.39114379882813	1.3916015625	7.6446533203125E-07	1.06383117781661E-06	1820359.375	3.9631031540921E-05
2	519	97.8346017529914	1.38107299804688	1.38092041015625	7.281494140625E-07	1.00551642390201E-06	1896479.5	3.97061885450967E-05
2	520	97.9353097527371	1.37100219726563	1.3702392578125	6.9732666015625E-07	9.55504333433055E-07	1964989.125	3.97779695049394E-05
2	521	98.0360177524828	1.36093139648438	1.361083984375	6.70471191406249E-07	9.12567600153125E-07	2030041	3.98468437197153E-05
2	522	98.1367257522286	1.35086059570313	1.3507080078125	6.47583007812499E-07	8.74695501806855E-07	2085768.25	3.9913211367093E-05
2	523	98.2374337519743	1.34078979492188	1.34063720703125	6.2744140625E-07	8.41171299725829E-07	2136673.25	3.99774144170806E-05
2	524	98.3381417517201	1.33071899414063	1.33056640625	6.09130859375E-07	8.10489041214169E-07	2184368.75	4.00396820623428E-05
2	525	98.4388497514658	1.32064819335938	1.32110595703125	5.9234619140625E-07	7.82552035616391E-07	2230293.75	4.01001816499047E-05
2	526	98.5395577512115	1.31057739257813	1.3104248046875	5.7861328125E-07	7.58229134589783E-07	2264768	4.01591423724312E-05
2	527	98.6402657509573	1.30050659179688	1.30035400390625	5.6610107421875E-07	7.36131767098414E-07	2297035.25	4.02167825086508E-05
2	528	98.740973750703	1.29043579101563	1.29058837890625	5.54504394531249E-07	7.15636872428149E-07	2327463	4.02732111979276E-05
2	529	98.8416817504487	1.28036499023438	1.28021240234375	5.4443359375E-07	6.96990639426076E-07	2351457.5	4.03285448555835E-05
2	530	98.9423897501945	1.27029418945313	1.2701416015625	5.3558349609375E-07	6.80266850849875E-07	2371510	4.03829290007707E-05
2	531	99.0430977499402	1.26022338867188	1.2603759765625	5.27343750000001E-07	6.64651395254623E-07	2390046.5	4.04364509449806E-05
2	532	99.143805749686	1.25015258789063	1.25	5.2032470703125E-07	6.50405866053916E-07	2402346	4.04892052756622E-05
2	533	99.2445137494317	1.24008178710938	1.24053955078125	5.13916015625E-07	6.37533105418697E-07	2413895.5	4.05412829422858E-05
2	534	99.3452217491774	1.23001098632813	1.2298583984375	5.07507324218751E-07	6.24162112217164E-07	2423331.5	4.05927166866604E-05
2	535	99.4459297489232	1.21994018554688	1.2200927734375	5.023193359375E-07	6.12876192462863E-07	2428918.75	4.06435647164471E-05
2	536	99.5466377486689	1.20986938476563	1.21002197265625	4.96826171875001E-07	6.01170540903695E-07	2435503.75	4.06938779633492E-05
2	537	99.6473457484146	1.19979858398438	1.19964599609375	4.91943359374999E-07	5.90157867463859E-07	2438585.75	4.07436673413031E-05
2	538	99.7480537481604	1.18972778320313	1.18927001953125	4.8675537109375E-07	5.78883543767006E-07	2443260.25	4.07929474022239E-05
2	539	99.8487617479061	1.17965698242188	1.17950439453125	4.82788085937499E-07	5.69450662624149E-07	2443110	4.08417690778151E-05
2	540	99.9494697476518	1.16958618164063	1.16912841796875	4.78210449218749E-07	5.59089414764458E-07	2444799	4.08901578339282E-05
2	541	100.050177747398	1.15951538085938	1.1590576171875	4.74853515625E-07	5.50382537767291E-07	2440874.25	4.09381500503514E-05
2	542	100.150885747143	1.14944458007813	1.1492919921875	4.7027587890625E-07	5.40484279554221E-07	2443867.75	4.0985738451127E-05
2	543	100.251593746889	1.13937377929688	1.13922119140625	4.66003417968749E-07	5.308809249982E-07	2444662.75	4.10328830184881E-05
2	544	100.352301746635	1.12930297851563	1.12884521484375	4.6234130859375E-07	5.2191177246641E-07	2441584.25	4.10796310461592E-05
2	545	100.453009746381	1.11923217773438	1.11907958984375	4.5806884765625E-07	5.12615486059076E-07	2443038	4.11259752581827E-05
2	546	100.553717746126	1.10916137695313	1.1090087890625	4.54101562500001E-07	5.03602620938182E-07	2442204.25	4.11719083786011E-05
2	547	100.654425745872	1.09909057617188	1.0986328125	4.49523925781251E-07	4.93861705308518E-07	2443991.75	4.12174085795414E-05
2	548	100.755133745618	1.08901977539063	1.08917236328125	4.44946289062501E-07	4.84623171814746E-07	2447874	4.1262450395152E-05
2	549	100.855841745363	1.07894897460938	1.0791015625	4.40368652343751E-07	4.75202483585235E-07	2450450.5	4.13070301874541E-05
2	550	100.956549745109	1.06887817382813	1.0687255859375	4.3609619140625E-07	4.66067149318405E-07	2450665	4.13511625083629E-05
2	551	101.057257744855	1.05880737304688	1.058349609375	4.315185546875E-07	4.56697478057322E-07	2452616.75	4.13948509958573E-05
2	552	101.157965744601	1.04873657226563	1.048583984375	4.2694091796875E-07	4.47683419224632E-07	2456040	4.14380774600431E-05
2	553	101.258673744346	1.03866577148438	1.03851318359375	4.22058105468751E-07	4.38312895312265E-07	2460593	4.14808273490053E-05
2	554	101.359381744092	1.02859497070313	1.02874755859375	4.168701171875E-07	4.28854093570408E-07	2467789.25	4.15230715589132E-05
2	555	101.460089743838	1.01852416992188	1.01837158203125	4.1229248046875E-07	4.19866950096548E-07	2470022.25	4.15648210037034E-05
2	556	101.560797743584	1.00845336914063	1.00830078125	4.06799316406251E-07	4.10176056675482E-07	2478619.75	4.16060684074182E-05
2	557	101.661505743329	0.998382568359375	0.99822998046875	4.02221679687501E-07	4.01509737457673E-07	2481790.75	4.16468028561212E-05
2	558	101.762213743075	0.988311767578125	0.98846435546875	3.97644042968751E-07	3.93056950542814E-07	2485802	4.16870825574733E-05
2	559	101.862921742821	0.978240966796875	0.9783935546875	3.93066406250001E-07	3.84573610290317E-07	2489130.5	4.17268965975381E-05
2	560	101.963629742567	0.968170166015625	0.96832275390625	3.8787841796875E-07	3.75591469037317E-07	2496459.5	4.1766219510464E-05
2	561	102.064337742312	0.958099365234375	0.9576416015625	3.83911132812501E-07	3.67649278132376E-07	2494435.75	4.18050840380602E-05
2	562	102.165045742058	0.948028564453125	0.94818115234375	3.79333496093751E-07	3.5967687495031E-07	2499597.75	4.18435156461783E-05
2	563	102.265753741804	0.937957763671875	0.93780517578125	3.74755859375001E-07	3.51447965840634E-07	2502443	4.18814852309879E-05
2	564	102.36646174155	0.927886962890625	0.927734375	3.704833984375E-07	3.43710155448207E-07	2504118.75	4.1919010982383E-05
2	565	102.467169741295	0.917816162109375	0.91796875	3.662109375E-07	3.36170188575124E-07	2506666.75	4.1956107452279E-05
2	566	102.567877741041	0.907745361328125	0.9075927734375	3.62548828125001E-07	3.29046713432035E-07	2503367	4.19928037445061E-05
2	567	102.668585740787	0.897674560546875	0.89752197265625	3.5888671875E-07	3.22108718364689E-07	2500850.25	4.20291326008737E-05
2	568	102.769293740532	0.887603759765625	0.88775634765625	3.54919433593751E-07	3.15081962298791E-07	2501289.75	4.20650758314878E-05
2	569	102.870001740278	0.877532958984375	0.8770751953125	3.51562499999999E-07	3.08346727706521E-07	2494791.75	4.21006479882635E-05
2	570	102.970709740024	0.867462158203125	0.86761474609375	3.4759521484375E-07	3.01578722883278E-07	2496049.25	4.21358527091797E-05
2	571	103.07141773977	0.857391357421875	0.8575439453125	3.44238281250001E-07	2.95199441779914E-07	2491135	4.21706899942365E-05
2	572	103.172125739515	0.847320556640625	0.84686279296875	3.41186523437501E-07	2.88938167614106E-07	2482111	4.22052034991793E-05
2	573	103.272833739261	0.837249755859375	0.8380126953125	3.3721923828125E-07	2.82593987321889E-07	2485068	4.22393641201779E-05
2	574	103.373541739007	0.827178955078125	0.82733154296875	3.338623046875E-07	2.76214791483653E-07	2478062.25	4.2273157305317E-05
2	575	103.474249738753	0.817108154296875	0.8172607421875	3.2928466796875E-07	2.69111438910841E-07	2481927.75	4.23065466748085E-05
2	576	103.574957738498	0.807037353515625	0.80718994140625	3.253173828125E-07	2.62592919852978E-07	2481238.25	4.23395104007795E-05
2	577	103.675665738244	0.796966552734375	0.797119140625	3.21350097656251E-07	2.56154294220323E-07	2480532	4.23720739490818E-05
2	578	103.77637373799	0.786895751953125	0.7867431640625	3.1707763671875E-07	2.4945865106929E-07	2481232	4.24042191298213E-05
2	579	103.877081737736	0.776824951171875	0.7769775390625	3.12194824218751E-07	2.42568376052077E-07	2488758.5	4.24359059252311E-05
2	580	103.977789737481	0.766754150390625	0.7666015625	3.0792236328125E-07	2.3605376497926E-07	2489593.75	4.24671306973323E-05
2	581	104.078497737227	0.756683349609375	0.7568359375	3.0242919921875E-07	2.28889277309463E-07	2502522.75	4.24978643422946E-05
2	582	104.179205736973	0.746612548828125	0.74652099609375	2.9754638671875E-07	2.22124626247933E-07	2508923	4.25280777562875E-05
2	583	104.279913736719	0.736541748046875	0.736419677734375	2.92053222656249E-07	2.15073740150729E-07	2521525.75	4.25577636633534E-05
2	584	104.380621736464	0.726470947265625	0.7264404296875	2.8717041015625E-07	2.08612178198564E-07	2529649.5	4.25869329774287E-05
2	585	104.48132973621	0.716400146484375	0.716339111328125	2.825927734375E-07	2.02432246965145E-07	2534881.25	4.26156220783014E-05
2	586	104.582037735956	0.706329345703125	0.70623779296875	2.76794433593749E-07	1.95482684262061E-07	2551488.5	4.26437873102259E-05
2	587	104.682745735701	0.696258544921875	0.696197509765625	2.72216796874999E-07	1.89516654813815E-07	2557511.25	4.2671432311181E-05
2	588	104.783453735447	0.686187744140625	0.686126708984375	2.67639160156249E-07	1.83634384143261E-07	2563626	4.26986189268064E-05
2	589	104.884161735193	0.676116943359375	0.67608642578125	2.63366699218751E-07	1.78058655819768E-07	2567091.5	4.27253544330597E-05
2	590	104.984869734939	0.666046142578125	0.666015625	2.593994140625E-07	1.72764046624252E-07	2567529.5	4.27516788477078E-05
2	591	105.085577734684	0.655975341796875	0.65594482421875	2.5634765625E-07	1.68149909995918E-07	2558809.5	4.27776503784116E-05
2	592	105.18628573443	0.645904541015625	0.645843505859375	2.5299072265625E-07	1.63392400054363E-07	2552835	4.28032944910228E-05
2	593	105.286993734176	0.635833740234375	0.6357421875	2.5054931640625E-07	1.59284766709789E-07	2537393.5	4.28286512033083E-05
2	594	105.387701733922	0.625762939453125	0.625732421875	2.484130859375E-07	1.55440119442574E-07	2518919	4.285377508495E-05
2	595	105.488409733667	0.615692138671875	0.615631103515625	2.46582031250001E-07	1.51803575931808E-07	2496658.5	4.28787025157362E-05
2	596	105.589117733413	0.605621337890625	0.6055908203125	2.45361328125E-07	1.4858856900446E-07	2468159.25	4.29034735134337E-05
2	597	105.689825733159	0.595550537109375	0.595550537109375	2.44140625E-07	1.45398075801495E-07	2439375.25	4.29281208198518E-05
2	598	105.790533732905	0.585479736328125	0.58544921875	2.43530273437501E-07	1.4257460634326E-07	2404010	4.29526771767996E-05
2	599	105.89124173265	0.575408935546875	0.575408935546875	2.4261474609375E-07	1.3960269029667E-07	2371698.25	4.29771571361925E-05
2	600	105.991949732396	0.565338134765625	0.5653076171875	2.423095703125E-07	1.36979437570517E-07	2332997.5	4.30015752499457E-05
2	601	106.092657732142	0.555267333984375	0.555328369140625	2.42004394531251E-07	1.34391896722263E-07	2294703.75	4.30259606218897E-05
2	602	106.193365731888	0.545196533203125	0.545135498046875	2.42004394531251E-07	1.31925176560799E-07	2252585.25	4.30503314419184E-05
2	603	106.294073731633	0.535125732421875	0.53509521484375	2.41699218749999E-07	1.29332093479206E-07	2213889	4.30746913480107E-05
2	604	106.394781731379	0.525054931640625	0.525054931640625	2.42004394531251E-07	1.27065590049824E-07	2169609.25	4.30990476161242E-05
2	605	106.495489731125	0.514984130859375	0.5150146484375	2.42004394531251E-07	1.24635803899764E-07	2128121.25	4.31234184361529E-05
2	606	106.59619773087	0.504913330078125	0.504913330078125	2.423095703125E-07	1.22345326758477E-07	2083753.125	4.31478038080968E-05
2	607	106.696905730616	0.494842529296875	0.494842529296875	2.4261474609375E-07	1.20056085961551E-07	2039622.75	4.317222192185E-05
2	608	106.797613730362	0.484771728515625	0.484771728515625	2.42919921875E-07	1.17760713180814E-07	1995603	4.31966727774125E-05
2	609	106.898321730108	0.474700927734375	0.474700927734375	2.42919921875E-07	1.15314314541592E-07	1954145.75	4.32211345469113E-05
2	610	106.999029729853	0.464630126953125	0.46466064453125	2.423095703125E-07	1.12591720835553E-07	1917632.25	4.32455672125798E-05
2	611	107.099737729599	0.454559326171875	0.45458984375	2.4261474609375E-07	1.10290194754725E-07	1873710.75	4.3269985326333E-05
2	612	107.200445729345	0.444488525390625	0.44451904296875	2.423095703125E-07	1.07711215946438E-07	1834508.875	4.32944034400862E-05
2	613	107.301153729091	0.434417724609375	0.434478759765625	2.423095703125E-07	1.05278360251759E-07	1793073.125	4.33188070019241E-05
2	614	107.401861728836	0.424346923828125	0.424346923828125	2.42004394531251E-07	1.02693810788423E-07	1753468	4.33431923738681E-05
2	615	107.502569728582	0.414276123046875	0.414276123046875	2.423095703125E-07	1.00383068968313E-07	1709697.75	4.33675813837908E-05
2	616	107.603277728328	0.404205322265625	0.40423583984375	2.4261474609375E-07	9.80735705979896E-08	1666163.625	4.3391999497544E-05
2	617	107.703985728074	0.394134521484375	0.39422607421875	2.4261474609375E-07	9.56450563194267E-08	1624905.75	4.34164321632124E-05
2	618	107.804693727819	0.384063720703125	0.384124755859375	2.43530273437501E-07	9.3546006496581E-08	1577318.25	4.34409121226054E-05
2	619	107.905401727565	0.373992919921875	0.373992919921875	2.4383544921875E-07	9.11927315883077E-08	1533792.25	4.3465453927638E-05
2	620	108.006109727311	0.363922119140625	0.363983154296875	2.44140625E-07	8.88630680151437E-08	1490875.125	4.34900248365011E-05
2	621	108.106817727057	0.353851318359375	0.353851318359375	2.45361328125E-07	8.68214300453474E-08	1442164.25	4.35146721429192E-05
2	622	108.207525726802	0.343780517578125	0.343841552734375	2.459716796875E-07	8.45752836653446E-08	1397890.875	4.35394140367862E-05
2	623	108.308233726548	0.333709716796875	0.333770751953125	2.4566650390625E-07	8.19962906462024E-08	1358633.625	4.35641704825684E-05
2	624	108.408941726294	0.323638916015625	0.323760986328125	2.459716796875E-07	7.96360311028366E-08	1316253.125	4.35889232903719E-05
2	625	108.509649726039	0.313568115234375	0.3135986328125	2.4566650390625E-07	7.70406742844898E-08	1276521.875	4.36136797361542E-05
2	626	108.610357725785	0.303497314453125	0.30352783203125	2.45361328125E-07	7.44739878655309E-08	1237064.75	4.3638407078106E-05
2	627	108.711065725531	0.293426513671875	0.293426513671875	2.45361328125E-07	7.19955153272167E-08	1195895.5	4.36631162301637E-05
2	628	108.811773725277	0.283355712890625	0.283355712890625	2.45056152343751E-07	6.94380588583954E-08	1156288.875	4.36878108303063E-05
2	629	108.912481725022	0.273284912109375	0.2733154296875	2.44140625E-07	6.67273951648895E-08	1119500.125	4.37124435848091E-05
2	630	109.013189724768	0.263214111328125	0.263214111328125	2.42919921875E-07	6.39399502233573E-08	1083542.75	4.37369671999477E-05
2	631	109.113897724514	0.253143310546875	0.253173828125	2.42004394531251E-07	6.1269176399037E-08	1046153.9375	4.37613853137009E-05
2	632	109.21460572426	0.243072509765625	0.243072509765625	2.40478515625001E-07	5.84537112047201E-08	1010786.875	4.37856833741535E-05
2	633	109.315313724005	0.233001708984375	0.23297119140625	2.3834228515625E-07	5.55268862001412E-08	977464.8125	4.3809792259708E-05
2	634	109.416021723751	0.222930908203125	0.222991943359375	2.35595703124999E-07	5.25359418190874E-08	946502.625	4.38336574006826E-05
2	635	109.516729723497	0.212860107421875	0.212890625	2.3193359375E-07	4.93764851228207E-08	917894.75	4.38571987615433E-05
2	636	109.617437723243	0.202789306640625	0.20281982421875	2.27966308593749E-07	4.6236085182727E-08	889692.125	4.38803581346292E-05
2	637	109.718145722988	0.192718505859375	0.192779541015625	2.215576171875E-07	4.27117754497885E-08	870110.1875	4.39029936387669E-05
2	638	109.818853722734	0.182647705078125	0.1827392578125	2.13012695312501E-07	3.8925779932697E-08	857879.6875	4.39248760812916E-05
2	639	109.91956172248	0.172576904296875	0.172637939453125	2.0111083984375E-07	3.47193598315698E-08	858421.875	4.3945725337835E-05
2	640	110.020269722226	0.162506103515625	0.16259765625	1.849365234375E-07	3.00702467370684E-08	879207.9375	4.39651666965801E-05
2	641	110.120977721971	0.152435302734375	0.15252685546875	1.617431640625E-07	2.46701752359968E-08	943018.875	4.39826217188966E-05
2	642	110.221685721717	0.142364501953125	0.1424560546875	1.300048828125E-07	1.85199819924264E-08	1095774.75	4.39973118773196E-05
2	643	110.322393721463	0.132293701171875	0.132415771484375	8.42285156249997E-08	1.11531832658329E-08	1572101.5	4.40081021224614E-05
2	644	110.423101721208	0.122222900390625	0.122314453125	2.16674804687497E-08	2.65024602263964E-09	5645070.5	4.40134317614138E-05
2	645	110.523809720954	0.112152099609375	0.11224365234375	-6.561279296875E-08	-7.36461913675157E-09	-1710697.75	4.40112198702991E-05
2	646	110.6245177207	0.102081298828125	0.102203369140625	-1.8157958984375E-07	-1.85580439904243E-08	-562857.1875	4.39987743448E-05
2	647	110.725225720446	0.092010498046875	0.092071533203125	-3.3447265625E-07	-3.07954088896167E-08	-275273.71875	4.3972788262181E-05
2	648	110.825933720191	0.081939697265625	0.082061767578125	-5.26123046875E-07	-4.31745839080122E-08	-155974.484375	4.39294526586309E-05
2	649	110.926641719937	0.071868896484375	0.07196044921875	-7.56225585937501E-07	-5.44183329509451E-08	-95157.3828125	4.38648821727838E-05
2	650	111.027349719683	0.061798095703125	0.0618896484375	-1.01348876953125E-06	-6.27244602924293E-08	-61065.94921875	4.37757698819041E-05
2	651	111.128057719429	0.051727294921875	0.05181884765625	-1.28143310546875E-06	-6.64023858121254E-08	-40438.19921875	4.36602131230757E-05
2	652	111.228765719174	0.041656494140625	0.0417999267578125	-1.5362548828125E-06	-6.42153423768832E-08	-27208.978515625	4.35183283116203E-05
2	653	111.32947371892	0.031585693359375	0.0317291259765625	-1.75384521484375E-06	-5.56479697877421E-08	-18091.177734375	4.33526583947241E-05
2	654	111.430181718666	0.021514892578125	0.0216522216796875	-1.91192626953125E-06	-4.13974490243163E-08	-11324.8212890625	4.31680746260099E-05
2	655	111.530889718412	0.011444091796875	0.0115936279296875	-2.00042724609375E-06	-2.31922090421222E-08	-5795.57568359375	4.29710707976483E-05
2	656	111.631597718157	0.001373291015625	0.0015106201171875	-2.0208740234375E-06	-3.05277292333983E-09	-747.50830078125	4.27685808972456E-05
2	657	111.732305717903	-0.008697509765625	-0.0085418701171875	-1.98822021484375E-06	1.69831189111846E-08	4296.2392578125	4.256670945324E-05
2	658	111.833013717649	-0.018768310546875	-0.0186065673828125	-1.9207763671875E-06	3.57390561589455E-08	9687.00390625	4.23698766098823E-05
2	659	111.933721717395	-0.028839111328125	-0.0286712646484375	-1.834716796875E-06	5.2603649436378E-08	15627.080078125	4.21807708335109E-05
2	660	112.03442971714	-0.038909912109375	-0.038726806640625	-1.74163818359375E-06	6.74480844509162E-08	22235.8515625	4.20006872445811E-05
2	661	112.135137716886	-0.048980712890625	-0.04879150390625	-1.65069580078125E-06	8.05399267278517E-08	29558.146484375	4.18298695876729E-05
2	662	112.235845716632	-0.059051513671875	-0.058929443359375	-1.5655517578125E-06	9.22570961847669E-08	37641.32421875	4.16679176851176E-05
2	663	112.336553716377	-0.069122314453125	-0.06903076171875	-1.48712158203125E-06	1.02657132572403E-07	46419.046875	4.15142058045603E-05
2	664	112.437261716123	-0.079193115234375	-0.079071044921875	-1.41754150390625E-06	1.12086489423291E-07	55780.41015625	4.13679445046E-05
2	665	112.537969715869	-0.089263916015625	-0.08917236328125	-1.3543701171875E-06	1.2077238409347E-07	65840.46875	4.12283661717083E-05
2	666	112.638677715615	-0.099334716796875	-0.0992431640625	-1.298828125E-06	1.28899813489625E-07	76409.7734375	4.10947686759755E-05
2	667	112.73938571536	-0.109405517578125	-0.109283447265625	-1.25030517578125E-06	1.36637652303762E-07	87405.421875	4.09664062317461E-05
2	668	112.840093715106	-0.119476318359375	-0.119354248046875	-1.20758056640625E-06	1.44129870705001E-07	98837.5	4.08426421927288E-05
2	669	112.940801714852	-0.129547119140625	-0.12939453125	-1.1688232421875E-06	1.51239333945341E-07	110704.9609375	4.0722981793806E-05
2	670	113.041509714598	-0.139617919921875	-0.1395263671875	-1.13494873046875E-06	1.58355263124577E-07	122936.28125	4.06069775635842E-05
2	671	113.142217714343	-0.149688720703125	-0.149566650390625	-1.1053466796875E-06	1.65323001510842E-07	135311.984375	4.04941711167339E-05
2	672	113.242925714089	-0.159759521484375	-0.1595458984375	-1.07818603515625E-06	1.72020151012475E-07	147976.234375	4.03842204832472E-05
2	673	113.343633713835	-0.169830322265625	-0.169647216796875	-1.0546875E-06	1.78924793203805E-07	160850.703125	4.02768200729042E-05
2	674	113.444341713581	-0.179901123046875	-0.17974853515625	-1.03424072265625E-06	1.85903246574526E-07	173797.59375	4.01716351916548E-05
2	675	113.545049713326	-0.189971923828125	-0.189788818359375	-1.015625E-06	1.92754271211015E-07	186868.984375	4.006841845694E-05
2	676	113.645757713072	-0.200042724609375	-0.19989013671875	-1.00006103515625E-06	1.99902345343617E-07	199877.9375	3.99669188482221E-05
2	677	113.746465712818	-0.189971923828125	-0.18975830078125	-8.8531494140625E-07	1.67995864330805E-07	214339.890625	3.98719821532723E-05
