Potential - Start -0.2 V, Upper Vertex 1.5 V, Lower Vertex -0.2 V, Stop -0.19 V; Scan - # end cross 5, Rate 0.1 Vps, Step 0.01 V 
Scan	Index	Time (s)	Potential applied (V)	WE(1).Potential (V)	WE(1).Current (A)	WE(1).Power (W)	WE(1).Resistance (Ω)	WE(1).Charge (C)
1	1	66.7955818313574	-0.189971923828125	-0.189849853515625	-2.056884765625E-07	3.9049925959489E-08	922997.0625	0
1	2	66.8962898311031	-0.179901123046875	-0.1798095703125	-1.708984375E-07	3.07291720957892E-08	1052142.875	-1.89626572222323E-08
1	3	66.9969978308488	-0.169830322265625	-0.169647216796875	-1.42822265625001E-07	2.42293989316522E-08	1187820.625	-3.47597470806704E-08
1	4	67.0977058305946	-0.159759521484375	-0.159637451171875	-1.1871337890625E-07	1.89511002446352E-08	1344730.125	-4.7929113122791E-08
1	5	67.1984138303403	-0.149688720703125	-0.14959716796875	-9.73510742187503E-08	1.4563444672433E-08	1536677.25	-5.88088227004846E-08
1	6	67.2991218300861	-0.139617919921875	-0.1395263671875	-7.781982421875E-08	1.08579163438094E-08	1792941.25	-6.76293794299454E-08
1	7	67.3998298298318	-0.129547119140625	-0.129486083984375	-5.79833984375E-08	7.50804307614317E-09	2233158	-7.44676142971912E-08
1	8	67.5005378295775	-0.119476318359375	-0.119354248046875	-3.814697265625E-08	4.55300330770569E-09	3128800	-7.93081582628474E-08
1	9	67.6012458293233	-0.109405517578125	-0.10931396484375	-1.70898437499997E-08	1.86815851677125E-09	6396429	-8.20895564856983E-08
1	10	67.701953829069	-0.099334716796875	-0.099212646484375	5.79833984375028E-09	-5.7526861052537E-10	-17110528	-8.26581256774261E-08
1	11	67.8026618288147	-0.089263916015625	-0.089202880859375	3.11279296874994E-08	-2.77670086923365E-09	-2865686.25	-8.07987419193523E-08
1	12	67.9033698285605	-0.079193115234375	-0.07916259765625	6.01196289062494E-08	-4.75922545817298E-09	-1316751.375	-7.62040599511238E-08
1	13	68.0040778283062	-0.069122314453125	-0.069061279296875	9.67407226562494E-08	-6.68103794509989E-09	-713880.125	-6.830551768644E-08
1	14	68.1047858280519	-0.059051513671875	-0.05902099609375	1.45874023437501E-07	-8.60963034199358E-09	-404602.5	-5.60888935297044E-08
1	15	68.2054938277977	-0.048980712890625	-0.0488067626953125	2.105712890625E-07	-1.02773034527104E-08	-231782.625	-3.81404490212844E-08
1	16	68.3062018275434	-0.038909912109375	-0.0387908935546875	2.9632568359375E-07	-1.14947376061991E-08	-130906.28125	-1.2616157007983E-08
1	17	68.4069098272892	-0.028839111328125	-0.02874755859375	4.09851074218751E-07	-1.17822169798387E-08	-70141.4765625	2.29426664333232E-08
1	18	68.5076178270349	-0.018768310546875	-0.0186126708984375	5.53283691406251E-07	-1.02980868277314E-08	-33640.37890625	7.14403540769126E-08
1	19	68.6083258267806	-0.008697509765625	-0.0086212158203125	7.25708007812501E-07	-6.25648510776955E-09	-11879.7314453125	1.35842697090993E-07
1	20	68.7090338265264	0.001373291015625	0.0014984130859375	9.22546386718751E-07	1.38235545232845E-09	1624.21435546875	2.18838891896667E-07
1	21	68.8097418262721	0.011444091796875	0.0115447998046875	1.1328125E-06	1.30780932749985E-08	10191.271484375	3.22334443580985E-07
1	22	68.9104498260178	0.021514892578125	0.021588134765625	1.3385009765625E-06	2.8895740911139E-08	16128.591796875	4.46774947704398E-07
1	23	69.0111578257636	0.031585693359375	0.0316558837890625	1.5191650390625E-06	4.80905129052189E-08	20837.6875	5.90669856137538E-07
1	24	69.1118658255093	0.041656494140625	0.04173583984375	1.65924072265625E-06	6.92498005605557E-08	25153.578125	7.50715287267667E-07
1	25	69.212573825255	0.051727294921875	0.051788330078125	1.74713134765625E-06	9.04810093516062E-08	29641.923828125	9.22239735245967E-07
1	26	69.3132818250008	0.061798095703125	0.061859130859375	1.78375244140625E-06	1.10341375147982E-07	34679.21484375	1.10003384179436E-06
1	27	69.4139898247465	0.071868896484375	0.0718994140625	1.7791748046875E-06	1.27921623516158E-07	40411.6640625	1.27944156247395E-06
1	28	69.5146978244923	0.081939697265625	0.08203125	1.74407958984375E-06	1.43069030400511E-07	47034.12109375	1.45685146435426E-06
1	29	69.615405824238	0.092010498046875	0.092071533203125	1.69036865234375E-06	1.55634836573881E-07	54468.31640625	1.62978960815963E-06
1	30	69.7161138239837	0.102081298828125	0.10205078125	1.629638671875E-06	1.66305895277219E-07	62621.72265625	1.7969653072214E-06
1	31	69.8168218237295	0.112152099609375	0.1121826171875	1.56829833984375E-06	1.75935809920702E-07	71531.4296875	1.95799430002808E-06
1	32	69.9175298234752	0.122222900390625	0.12225341796875	1.50909423828125E-06	1.84491923960195E-07	81011.125	2.11295332519512E-06
1	33	70.0182378232209	0.132293701171875	0.13232421875	1.45355224609375E-06	1.9234015269376E-07	91035.0703125	2.2621343305218E-06
1	34	70.1189458229667	0.142364501953125	0.1424560546875	1.40289306640625E-06	1.99850617832453E-07	101544.484375	2.40596773437574E-06
1	35	70.2196538227124	0.152435302734375	0.1524658203125	1.3555908203125E-06	2.06681264103281E-07	112471.859375	2.5448684937146E-06
1	36	70.3203618224582	0.162506103515625	0.162567138671875	1.31378173828125E-06	2.1357773505315E-07	123739.84375	2.6792820335686E-06
1	37	70.4210698222039	0.172576904296875	0.172607421875	1.27593994140625E-06	2.20236699988163E-07	135278.640625	2.80968492916145E-06
1	38	70.5217778219496	0.182647705078125	0.182647705078125	1.24298095703125E-06	2.27027612709207E-07	146943.28125	2.93652260552335E-06
1	39	70.6224858216954	0.192718505859375	0.192779541015625	1.2139892578125E-06	2.34032285106878E-07	158798.390625	3.06024094243185E-06
1	40	70.7231938214411	0.202789306640625	0.202789306640625	1.1883544921875E-06	2.40985571053898E-07	170647.15625	3.18120851261483E-06
1	41	70.8239018211868	0.212860107421875	0.212890625	1.1651611328125E-06	2.48051861717613E-07	182713.46875	3.29971749124525E-06
1	42	70.9246098209326	0.222930908203125	0.222900390625	1.14410400390625E-06	2.55021234352171E-07	194825.296875	3.41599820785632E-06
1	43	71.0253178206783	0.233001708984375	0.233001708984375	1.12518310546875E-06	2.62169578491012E-07	207078.9375	3.53026575794502E-06
1	44	71.126025820424	0.243072509765625	0.24310302734375	1.1077880859375E-06	2.69306639211209E-07	219449.03125	3.64270499630948E-06
1	45	71.2267338201698	0.253143310546875	0.253143310546875	1.092529296875E-06	2.76566481716145E-07	231703.921875	3.75349964087945E-06
1	46	71.3274418199155	0.263214111328125	0.263153076171875	1.08001708984375E-06	2.84209818346426E-07	243656.390625	3.86289593734546E-06
1	47	71.4281498196613	0.273284912109375	0.273284912109375	1.0693359375E-06	2.92233352183757E-07	255565.078125	3.97112444261438E-06
1	48	71.528857819407	0.283355712890625	0.283355712890625	1.0595703125E-06	3.00235313943631E-07	267425.125	4.0783233998809E-06
1	49	71.6295658191527	0.293426513671875	0.293426513671875	1.05010986328125E-06	3.08130069015533E-07	279424.59375	4.18455420003738E-06
1	50	71.7302738188985	0.303497314453125	0.30340576171875	1.04156494140625E-06	3.16016809165376E-07	291297.96875	4.28987868872355E-06
1	51	71.8309818186442	0.313568115234375	0.31353759765625	1.033935546875E-06	3.24177648280966E-07	303246.75	4.39438827015692E-06
1	52	71.9316898183899	0.323638916015625	0.323638916015625	1.026611328125E-06	3.32251374857151E-07	315249.6875	4.49814524472458E-06
1	53	72.0323978181357	0.333709716796875	0.333709716796875	1.0205078125E-06	3.40553356181772E-07	327003.625	4.60122555523412E-06
1	54	72.1331058178814	0.343780517578125	0.343780517578125	1.01531982421875E-06	3.49047155623339E-07	338593.34375	4.70373788630241E-06
1	55	72.2338138176272	0.353851318359375	0.3538818359375	1.01104736328125E-06	3.57791265059859E-07	350015.125	4.80577364214696E-06
1	56	72.3345218173729	0.363922119140625	0.363922119140625	1.00738525390625E-06	3.66609754109959E-07	361254.1875	4.90740967507008E-06
1	57	72.4352298171186	0.373992919921875	0.3740234375	1.00372314453125E-06	3.75415964981585E-07	372636.0625	5.00867690789164E-06
1	58	72.5359378168644	0.384063720703125	0.384063720703125	9.991455078125E-07	3.83735539344343E-07	384392.1875	5.10952941112919E-06
1	59	72.6366458166101	0.394134521484375	0.394195556640625	9.95483398437499E-07	3.92415103078747E-07	395984.09375	5.20996718478273E-06
1	60	72.7373538163558	0.404205322265625	0.404266357421875	9.9334716796875E-07	4.01576841113638E-07	406973.90625	5.31011255588965E-06
1	61	72.8380618161016	0.414276123046875	0.414215087890625	9.9151611328125E-07	4.10700948805243E-07	417759.3125	5.41005829290953E-06
1	62	72.9387698158473	0.424346923828125	0.42431640625	9.906005859375E-07	4.20328092332056E-07	428342.5625	5.50986578673474E-06
1	63	73.039477815593	0.434417724609375	0.43450927734375	9.89685058593751E-07	4.30027341735695E-07	439037.90625	5.60958096684772E-06
1	64	73.1401858153388	0.444488525390625	0.4444580078125	9.89379882812499E-07	4.39737789292849E-07	449228.90625	5.70923475606833E-06
1	65	73.2408938150845	0.454559326171875	0.454620361328125	9.8907470703125E-07	4.49653498435509E-07	459642.09375	5.80885807721643E-06
1	66	73.3416018148303	0.464630126953125	0.464599609375	9.89379882812499E-07	4.59665471908011E-07	469586.6875	5.90848139836453E-06
1	67	73.442309814576	0.474700927734375	0.4747314453125	9.89990234375E-07	4.69979482886629E-07	479531.46875	6.00815019424772E-06
1	68	73.5430178143217	0.484771728515625	0.484710693359375	9.91210937500001E-07	4.8045052380985E-07	489008.65625	6.10791175859049E-06
1	69	73.6437258140675	0.494842529296875	0.494873046875	9.9456787109375E-07	4.92184824452124E-07	497575.96875	6.20790387984016E-06
1	70	73.7444338138132	0.504913330078125	0.5048828125	9.97314453125001E-07	5.03526905504259E-07	506242.375	6.30820295555168E-06
1	71	73.8451418135589	0.514984130859375	0.514984130859375	1.0009765625E-06	5.15487045049667E-07	514481.71875	6.40882490188233E-06
1	72	73.9458498133047	0.525054931640625	0.525054931640625	1.0052490234375E-06	5.27810982475785E-07	522313.28125	6.50984611638705E-06
1	73	74.0465578130504	0.535125732421875	0.535125732421875	1.00830078125E-06	5.3956767942509E-07	530720.375	6.6112365857407E-06
1	74	74.1472658127961	0.545196533203125	0.545196533203125	1.01165771484375E-06	5.51552261640609E-07	538914.0625	6.71294947096612E-06
1	75	74.2479738125419	0.555267333984375	0.55523681640625	1.015625E-06	5.63912408324541E-07	546694.6875	6.81503161104047E-06
1	76	74.3486818122876	0.565338134765625	0.565338134765625	1.0198974609375E-06	5.76586955958192E-07	554308.8125	6.91752802595147E-06
1	77	74.4493898120334	0.575408935546875	0.5753173828125	1.024169921875E-06	5.89222793223598E-07	561740.1875	7.02045508660376E-06
1	78	74.5500978117791	0.585479736328125	0.58544921875	1.02813720703125E-06	6.01922067744454E-07	569427.1875	7.12379687684006E-06
1	79	74.6508058115248	0.595550537109375	0.595550537109375	1.0321044921875E-06	6.14670398135786E-07	577025.4375	7.22753838999779E-06
1	80	74.7515138112706	0.605621337890625	0.6055908203125	1.03607177734375E-06	6.27435554179101E-07	584506.625	7.3316791713296E-06
1	81	74.8522218110163	0.615692138671875	0.615631103515625	1.03790283203125E-06	6.38965275356895E-07	593149.0625	7.43611235520802E-06
1	82	74.952929810762	0.625762939453125	0.625701904296875	1.04034423828125E-06	6.50945310098905E-07	601437.4375	7.54076017983607E-06
1	83	75.0536378105078	0.635833740234375	0.635772705078125	1.04217529296875E-06	6.62586614907923E-07	610043.9375	7.64562355470844E-06
1	84	75.1543458102535	0.645904541015625	0.645904541015625	1.04522705078125E-06	6.75116893944505E-07	617956.25	7.75073294789763E-06
1	85	75.2550538099993	0.655975341796875	0.655914306640625	1.04827880859375E-06	6.87581064084952E-07	625705.9375	7.85614884080132E-06
1	86	75.355761809745	0.666046142578125	0.665924072265625	1.051025390625E-06	6.99903125678247E-07	633594.6875	7.96185759099899E-06
1	87	75.4564698094907	0.676116943359375	0.676025390625	1.05377197265625E-06	7.12376561295969E-07	641529.125	8.06784191809129E-06
1	88	75.5571778092365	0.686187744140625	0.6861572265625	1.0552978515625E-06	7.24100232218916E-07	650202.4375	8.17404270492261E-06
1	89	75.6578858089822	0.696258544921875	0.696136474609375	1.05743408203125E-06	7.36118408894981E-07	658326.1875	8.28042720968369E-06
1	90	75.7585938087279	0.706329345703125	0.706268310546875	1.05987548828125E-06	7.48556431062752E-07	666369.1875	8.38704181660432E-06
1	91	75.8593018084737	0.716400146484375	0.716339111328125	1.0626220703125E-06	7.6119772529637E-07	674124.125	8.49391835799906E-06
1	92	75.9600098082194	0.726470947265625	0.726348876953125	1.06658935546875E-06	7.74715942952753E-07	681001.4375	8.60113232192816E-06
1	93	76.0607178079651	0.736541748046875	0.7364501953125	1.0711669921875E-06	7.88861086675752E-07	687521.375	8.7087773863459E-06
1	94	76.1614258077109	0.746612548828125	0.74658203125	1.07635498046875E-06	8.03587226982927E-07	693620.6875	8.8169135779026E-06
1	95	76.2621338074566	0.756683349609375	0.7568359375	1.08062744140625E-06	8.17857653601095E-07	700367.1875	8.92552634468302E-06
1	96	76.3628418072024	0.766754150390625	0.76690673828125	1.08489990234375E-06	8.32017008178809E-07	706891.75	9.03456930245738E-06
1	97	76.4635498069481	0.776824951171875	0.77667236328125	1.0894775390625E-06	8.46167097279249E-07	712885.125	9.14405791263562E-06
1	98	76.5642578066938	0.786895751953125	0.787353515625	1.09375E-06	8.6116790498636E-07	719866.0625	9.25399217521772E-06
1	99	76.6649658064396	0.796966552734375	0.79681396484375	1.0992431640625E-06	8.7589228314755E-07	724875.0625	9.36441756493878E-06
1	100	76.7656738061853	0.807037353515625	0.80718994140625	1.1053466796875E-06	8.92224704784894E-07	730259.5625	9.47542775975307E-06
1	101	76.866381805931	0.817108154296875	0.81695556640625	1.11175537109375E-06	9.0825466259048E-07	734834	9.587067324901E-06
1	102	76.9670898056768	0.827178955078125	0.82733154296875	1.11663818359375E-06	9.23829986732017E-07	740912.8125	9.69927623373223E-06
1	103	77.0677978054225	0.837249755859375	0.83709716796875	1.1212158203125E-06	9.38566529384843E-07	746597.75	9.8119608082925E-06
1	104	77.1685058051683	0.847320556640625	0.84747314453125	1.1248779296875E-06	9.53303867845534E-07	753391.1875	9.92506102193147E-06
1	105	77.269213804914	0.857391357421875	0.8575439453125	1.1285400390625E-06	9.67772621152108E-07	759870.1875	1.00385295809247E-05
1	106	77.3699218046597	0.867462158203125	0.8673095703125	1.13250732421875E-06	9.82234496404999E-07	765831.3125	1.0152381946682E-05
1	107	77.4706298044055	0.877532958984375	0.87799072265625	1.1370849609375E-06	9.98350060399389E-07	772141.6875	1.0266665412928E-05
1	108	77.5713378041512	0.887603759765625	0.887451171875	1.14166259765625E-06	1.01316982181743E-06	777332.3125	1.03814090834931E-05
1	109	77.6720458038969	0.897674560546875	0.8978271484375	1.14654541015625E-06	1.02939964108373E-06	783071.625	1.04966293292819E-05
1	110	77.7727538036427	0.907745361328125	0.90789794921875	1.15203857421875E-06	1.0459334589541E-06	788079.5	1.06123725345242E-05
1	111	77.8734618033884	0.917816162109375	0.91766357421875	1.15631103515625E-06	1.06110451270069E-06	793613.125	1.07286068669055E-05
1	112	77.9741698031341	0.927886962890625	0.92864990234375	1.1602783203125E-06	1.07749235667143E-06	800368.25	1.08452568383655E-05
1	113	78.0748778028799	0.937957763671875	0.93841552734375	1.16546630859375E-06	1.09369170786522E-06	805184.625	1.09623670141445E-05
1	114	78.1755858026256	0.948028564453125	0.94757080078125	1.170654296875E-06	1.10927783225634E-06	809436.9375	1.10800001493772E-05
1	115	78.2762938023714	0.958099365234375	0.95794677734375	1.17706298828125E-06	1.12756367798283E-06	813845	1.11982171802083E-05
1	116	78.3770018021171	0.968170166015625	0.9686279296875	1.18438720703125E-06	1.14723047772713E-06	817830.4375	1.13171254270128E-05
1	117	78.4777098018628	0.978240966796875	0.97808837890625	1.19140625E-06	1.16530054583563E-06	820952.875	1.14367567221052E-05
1	118	78.5784178016086	0.988311767578125	0.98846435546875	1.19873046875E-06	1.18490231670876E-06	824592.75	1.15571092464961E-05
1	119	78.6791258013543	0.998382568359375	0.99853515625	1.20513916015625E-06	1.20337381304125E-06	828564.1875	1.16781538963551E-05
1	120	78.7798338011	1.00845336914063	1.00860595703125	1.21124267578125E-06	1.22166659366485E-06	832703.5	1.17998279165477E-05
1	121	78.8805418008458	1.01852416992188	1.01837158203125	1.21795654296875E-06	1.24033238080301E-06	836131.3125	1.19221485874732E-05
1	122	78.9812498005915	1.02859497070313	1.02874755859375	1.22467041015625E-06	1.25987673982308E-06	840019.9375	1.20451441034675E-05
1	123	79.0819578003372	1.03866577148438	1.038818359375	1.23199462890625E-06	1.27981854802783E-06	843200.4375	1.21688472063397E-05
1	124	79.182665800083	1.04873657226563	1.048583984375	1.23870849609375E-06	1.29888985611615E-06	846513.9375	1.22932569865952E-05
1	125	79.2833737998287	1.05880737304688	1.05865478515625	1.2451171875E-06	1.31814920223405E-06	850245.125	1.24183279694989E-05
1	126	79.3840817995745	1.06887817382813	1.06903076171875	1.25030517578125E-06	1.33661467316415E-06	855015.9375	1.25439819385065E-05
1	127	79.4847897993202	1.07894897460938	1.07879638671875	1.25518798828125E-06	1.35409220547444E-06	859470	1.26701434055576E-05
1	128	79.5854977990659	1.08901977539063	1.08917236328125	1.25885009765625E-06	1.37110464493162E-06	865212.1875	1.27967350636027E-05
1	129	79.6862057988117	1.09909057617188	1.09893798828125	1.263427734375E-06	1.38842870001099E-06	869806.75	1.29237423607265E-05
1	130	79.7869137985574	1.10916137695313	1.1083984375	1.2689208984375E-06	1.40646989166271E-06	873496.875	1.30512562463991E-05
1	131	79.8876217983031	1.11923217773438	1.11846923828125	1.27410888671875E-06	1.42505155054096E-06	877844.3125	1.31793076434406E-05
1	132	79.9883297980489	1.12930297851563	1.129150390625	1.28021240234375E-06	1.44555224323994E-06	882002.4375	1.33079283841653E-05
1	133	80.0890377977946	1.13937377929688	1.1395263671875	1.28692626953125E-06	1.46648642385117E-06	885463.625	1.34371939566336E-05
1	134	80.1897457975404	1.14944458007813	1.14990234375	1.29302978515625E-06	1.4868579683025E-06	889308.5	1.35671052703401E-05
1	135	80.2904537972861	1.15951538085938	1.15966796875	1.2994384765625E-06	1.50691710132378E-06	892437.8125	1.36976459543803E-05
1	136	80.3911617970318	1.16958618164063	1.16973876953125	1.30615234375E-06	1.52785696627689E-06	895560.8125	1.38288478410686E-05
1	137	80.4918697967776	1.17965698242188	1.17950439453125	1.314697265625E-06	1.55069119500695E-06	897168.125	1.396081825078E-05
1	138	80.5925777965233	1.18972778320313	1.18927001953125	1.3238525390625E-06	1.5744180927868E-06	898340.25	1.40936799652991E-05
1	139	80.693285796269	1.19979858398438	1.1993408203125	1.33453369140625E-06	1.60056060849456E-06	898696.5625	1.42275403050007E-05
1	140	80.7939937960148	1.20986938476563	1.209716796875	1.34552001953125E-06	1.62769811140606E-06	899070.125	1.43624920383445E-05
1	141	80.8947017957605	1.21994018554688	1.2200927734375	1.35650634765625E-06	1.65506355642719E-06	899437.5625	1.44985497172456E-05
1	142	80.9954097955062	1.23001098632813	1.2298583984375	1.36749267578125E-06	1.68182225479541E-06	899352.875	1.46357133417041E-05
1	143	81.096117795252	1.24008178710938	1.240234375	1.3775634765625E-06	1.70850148606405E-06	900310.1875	1.47739383464796E-05
1	144	81.1968257949977	1.25015258789063	1.25030517578125	1.3873291015625E-06	1.73458477092936E-06	901231.8125	1.49131619764376E-05
1	145	81.2975337947435	1.26022338867188	1.2603759765625	1.39739990234375E-06	1.7612492229091E-06	901943.6875	1.50533842315781E-05
1	146	81.3982417944892	1.27029418945313	1.27044677734375	1.40777587890625E-06	1.78850427801081E-06	902449.625	1.5194636034721E-05
1	147	81.4989497942349	1.28036499023438	1.28021240234375	1.41815185546875E-06	1.81553548372904E-06	902733	1.53369328472763E-05
1	148	81.5996577939807	1.29043579101563	1.290283203125	1.42730712890625E-06	1.84163036465179E-06	903998.3125	1.54802128236042E-05
1	149	81.7003657937264	1.30050659179688	1.300048828125	1.435546875E-06	1.86628108167497E-06	905612.25	1.56243695528246E-05
1	150	81.8010737934721	1.31057739257813	1.3104248046875	1.44256591796875E-06	1.89037416475912E-06	908398.5625	1.57692938955734E-05
1	151	81.9017817932179	1.32064819335938	1.32080078125	1.448974609375E-06	1.91380672731611E-06	911541.75	1.59148930833908E-05
1	152	82.0024897929636	1.33071899414063	1.33087158203125	1.45538330078125E-06	1.93692835637194E-06	914447.4375	1.60611398314359E-05
1	153	82.1031977927094	1.34078979492188	1.34063720703125	1.461181640625E-06	1.9589144812926E-06	917502.125	1.62080013978994E-05
1	154	82.2039057924551	1.35086059570313	1.35101318359375	1.46759033203125E-06	1.98273392015835E-06	920565.625	1.63554759637918E-05
1	155	82.3046137922008	1.36093139648438	1.3604736328125	1.47430419921875E-06	2.00575209419185E-06	922790.3125	1.65036126418272E-05
1	156	82.4053217919466	1.37100219726563	1.3714599609375	1.4813232421875E-06	2.03157560463296E-06	925834.375	1.66524405358359E-05
1	157	82.5060297916923	1.38107299804688	1.3812255859375	1.4874267578125E-06	2.05447190637642E-06	928600.75	1.68019287229981E-05
1	158	82.606737791438	1.39114379882813	1.3909912109375	1.4935302734375E-06	2.07748735192581E-06	931344.5	1.69520317285787E-05
1	159	82.7074457911838	1.40121459960938	1.40106201171875	1.4996337890625E-06	2.10107987186348E-06	934269.4375	1.71027495525777E-05
1	160	82.8081537909295	1.41128540039063	1.41143798828125	1.50634765625E-06	2.12611621464021E-06	936993.5	1.7254113117815E-05
1	161	82.9088617906752	1.42135620117188	1.42120361328125	1.51397705078125E-06	2.15166960515489E-06	938722	1.74061970028561E-05
1	162	83.009569790421	1.43142700195313	1.43096923828125	1.52191162109375E-06	2.17780871025752E-06	940244.625	1.75590666913195E-05
1	163	83.1102777901667	1.44149780273438	1.441650390625	1.53076171875E-06	2.20682318285981E-06	941786.3125	1.77127803908661E-05
1	164	83.2109857899125	1.45156860351563	1.4520263671875	1.53961181640625E-06	2.23555684897292E-06	943112.0625	1.78673872142099E-05
1	165	83.3116937896582	1.46163940429688	1.4617919921875	1.5478515625E-06	2.26263705371821E-06	944400.625	1.80228526005521E-05
1	166	83.4124017894039	1.47171020507813	1.47186279296875	1.55548095703125E-06	2.28945441449468E-06	946242.875	1.8179118342232E-05
1	167	83.5131097891497	1.48178100585938	1.48193359375	1.56463623046875E-06	2.31868693845172E-06	947142.625	1.8336228094995E-05
1	168	83.6138177888954	1.49185180664063	1.49200439453125	1.5740966796875E-06	2.34855906455778E-06	947848.0625	1.84942764462903E-05
1	169	83.7145257886411	1.50192260742188	1.50177001953125	1.58477783203125E-06	2.37997187468864E-06	947621.8125	1.86533379746834E-05
1	170	83.8152337883869	1.49185180664063	1.49200439453125	1.44287109375E-06	2.15276986637036E-06	1034052.5	1.88057929335628E-05
1	171	83.9159417881326	1.48178100585938	1.48193359375	1.3421630859375E-06	1.98899647330109E-06	1104138.25	1.89460297406185E-05
1	172	84.0166497878784	1.47171020507813	1.4715576171875	1.26220703125E-06	1.85741032510123E-06	1165860.75	1.90771697816672E-05
1	173	84.1173577876241	1.46163940429688	1.46209716796875	1.19415283203125E-06	1.74596743818256E-06	1224380.375	1.92008574231295E-05
1	174	84.2180657873698	1.45156860351563	1.451416015625	1.13555908203125E-06	1.64816856340622E-06	1278151.125	1.9318167687743E-05
1	175	84.3187737871156	1.44149780273438	1.44134521484375	1.08367919921875E-06	1.56195585532259E-06	1330047.875	1.94299154827604E-05
1	176	84.4194817868613	1.43142700195313	1.4312744140625	1.03851318359375E-06	1.48639730923605E-06	1378195.75	1.95367774722399E-05
1	177	84.520189786607	1.42135620117188	1.4215087890625	9.991455078125E-07	1.42029409744282E-06	1422724.5	1.96393812075257E-05
1	178	84.6208977863528	1.41128540039063	1.4105224609375	9.63134765625E-07	1.35852326366148E-06	1464512	1.97381905309157E-05
1	179	84.7216057860985	1.40121459960938	1.4013671875	9.307861328125E-07	1.3043730859863E-06	1505573.875	1.98335565073648E-05
1	180	84.8223137858442	1.39114379882813	1.39068603515625	9.0087890625E-07	1.25283963825495E-06	1543699.25	1.99257883650716E-05
1	181	84.92302178559	1.38107299804688	1.38092041015625	8.7310791015625E-07	1.20569245609659E-06	1581614.875	2.0015115296701E-05
1	182	85.0237297853357	1.37100219726563	1.370849609375	8.47473144531249E-07	1.16175817765907E-06	1617573	2.01017537619919E-05
1	183	85.1244377850815	1.36093139648438	1.36016845703125	8.24584960937499E-07	1.12157442799798E-06	1649518.875	2.01859475055244E-05
1	184	85.2251457848272	1.35086059570313	1.35040283203125	8.05053710937501E-07	1.08714675661759E-06	1677407.25	2.02680075744865E-05
1	185	85.3258537845729	1.34078979492188	1.341552734375	7.8704833984375E-07	1.05586684640002E-06	1704536.75	2.0348175894469E-05
1	186	85.4265617843187	1.33071899414063	1.33087158203125	7.71179199218749E-07	1.02634044196748E-06	1725761.75	2.0426638002391E-05
1	187	85.5272697840644	1.32064819335938	1.32049560546875	7.56225585937501E-07	9.98592554424249E-07	1746166.25	2.05035503313411E-05
1	188	85.6279777838101	1.31057739257813	1.3104248046875	7.4127197265625E-07	9.71381155068229E-07	1767805.75	2.05789547180757E-05
1	189	85.7286857835559	1.30050659179688	1.30035400390625	7.26928710937499E-07	9.45264673646307E-07	1788832.875	2.0652883904404E-05
1	190	85.8293937833016	1.29043579101563	1.29058837890625	7.13500976562501E-07	9.20836100704037E-07	1808811	2.07254161068704E-05
1	191	85.9301017830473	1.28036499023438	1.28082275390625	7.000732421875E-07	8.96669689609553E-07	1829555.5	2.07965949812206E-05
1	192	86.0308097827931	1.27029418945313	1.270751953125	6.8817138671875E-07	8.7449512875537E-07	1846563.25	2.08664987439988E-05
1	193	86.1315177825388	1.26022338867188	1.2603759765625	6.7718505859375E-07	8.53507742704096E-07	1861198.875	2.09352492674952E-05
1	194	86.2322257822846	1.25015258789063	1.24969482421875	6.65893554687499E-07	8.32163721042889E-07	1876718.625	2.10028792935191E-05
1	195	86.3329337820303	1.24008178710938	1.23992919921875	6.53991699218751E-07	8.10903372894245E-07	1895940.375	2.10693397093564E-05
1	196	86.433641781776	1.23001098632813	1.23016357421875	6.4117431640625E-07	7.88749275670853E-07	1918610.125	2.11345577554312E-05
1	197	86.5343497815218	1.21994018554688	1.2200927734375	6.29272460937499E-07	7.6777075719292E-07	1938894.375	2.11985297937645E-05
1	198	86.6350577812675	1.20986938476563	1.209716796875	6.1676025390625E-07	7.46105229154637E-07	1961405.25	2.1261272195261E-05
1	199	86.7357657810132	1.19979858398438	1.1993408203125	6.04858398437499E-07	7.2543133455838E-07	1982845.75	2.13227849599207E-05
1	200	86.836473780759	1.18972778320313	1.18988037109375	5.9417724609375E-07	7.06999799149344E-07	2002568.125	2.13831626751926E-05
1	201	86.9371817805047	1.17965698242188	1.17950439453125	5.8441162109375E-07	6.89316095758841E-07	2018276.75	2.14425090234727E-05
1	202	87.0378897802505	1.16958618164063	1.16973876953125	5.7525634765625E-07	6.72899602705002E-07	2033421.875	2.15009022213053E-05
1	203	87.1385977799962	1.15951538085938	1.1590576171875	5.65185546875E-07	6.5508260149727E-07	2050756	2.15583277167752E-05
1	204	87.2393057797419	1.14944458007813	1.14959716796875	5.54504394531249E-07	6.37456651020329E-07	2073197.625	2.16147091123275E-05
1	205	87.3400137794877	1.13937377929688	1.13922119140625	5.45654296875001E-07	6.21620927176991E-07	2087807.625	2.16701064346125E-05
1	206	87.4407217792334	1.12930297851563	1.12945556640625	5.37109375E-07	6.06641151534859E-07	2102841	2.17246288229944E-05
1	207	87.5414297789791	1.11923217773438	1.11907958984375	5.30090332031249E-07	5.93213314914465E-07	2111111	2.1778365407954E-05
1	208	87.6421377787249	1.10916137695313	1.10870361328125	5.23681640625E-07	5.80607718347892E-07	2117132.75	2.18314271478448E-05
1	209	87.7428457784706	1.09909057617188	1.0992431640625	5.17578125E-07	5.68944187762099E-07	2123821	2.1883859517402E-05
1	210	87.8435537782163	1.08901977539063	1.08917236328125	5.11779785156249E-07	5.57416399260546E-07	2128205.25	2.19356916204561E-05
1	211	87.9442617779621	1.07894897460938	1.0784912109375	5.047607421875E-07	5.44380043265846E-07	2136638.5	2.19868779822718E-05
1	212	88.0449697777078	1.06887817382813	1.06842041015625	4.96520996093749E-07	5.30493196038151E-07	2151813	2.20372967305593E-05
1	213	88.1456777774536	1.05880737304688	1.05865478515625	4.8858642578125E-07	5.17244359343749E-07	2166770.75	2.2086900571594E-05
1	214	88.2463857771993	1.04873657226563	1.04827880859375	4.8095703125E-07	5.0417702368577E-07	2179568.75	2.21357204281958E-05
1	215	88.347093776945	1.03866577148438	1.03912353515625	4.73937988281251E-07	4.92480126013106E-07	2192530.75	2.21838035940891E-05
1	216	88.4478017766908	1.02859497070313	1.02813720703125	4.6722412109375E-07	4.80370488276094E-07	2200522.5	2.22311955440091E-05
1	217	88.5485097764365	1.01852416992188	1.01837158203125	4.58679199218751E-07	4.67105849111249E-07	2220226.25	2.22778180614114E-05
1	218	88.6492177761822	1.00845336914063	1.00921630859375	4.498291015625E-07	4.53974848824146E-07	2243555	2.23235656449106E-05
1	219	88.749925775928	0.998382568359375	0.99822998046875	4.40063476562499E-07	4.39284548292562E-07	2268377.25	2.23683746298775E-05
1	220	88.8506337756737	0.988311767578125	0.9881591796875	4.302978515625E-07	4.25202756559884E-07	2296454	2.24122013605665E-05
1	221	88.9513417754195	0.978240966796875	0.97869873046875	4.20227050781249E-07	4.11275692613344E-07	2328976	2.24550276470836E-05
1	222	89.0520497751652	0.968170166015625	0.96832275390625	4.11376953125001E-07	3.98345633811914E-07	2353857.75	2.24969026021427E-05
1	223	89.1527577749109	0.958099365234375	0.95794677734375	4.0283203125E-07	3.85891638643443E-07	2378030.25	2.25379008043092E-05
1	224	89.2534657746567	0.948028564453125	0.94818115234375	3.9520263671875E-07	3.74723668983279E-07	2399228	2.25780859182123E-05
1	225	89.3541737744024	0.937957763671875	0.93780517578125	3.86962890625001E-07	3.6289580407356E-07	2423501.75	2.26174706767779E-05
1	226	89.4548817741481	0.927886962890625	0.927734375	3.7872314453125E-07	3.51354486838318E-07	2449637.5	2.26560259761754E-05
1	227	89.5555897738939	0.917816162109375	0.91827392578125	3.69873046874999E-07	3.39644770974701E-07	2482673.25	2.26937208935851E-05
1	228	89.6562977736396	0.907745361328125	0.90789794921875	3.62243652343749E-07	3.28880247479901E-07	2506318.5	2.27305863518268E-05
1	229	89.7570057733853	0.897674560546875	0.8978271484375	3.56445312500001E-07	3.20026259714723E-07	2518835.75	2.27667751460103E-05
1	230	89.8577137731311	0.887603759765625	0.88775634765625	3.5064697265625E-07	3.11289056753594E-07	2531766.75	2.28023800445953E-05
1	231	89.9584217728768	0.877532958984375	0.87799072265625	3.4637451171875E-07	3.04113598303957E-07	2534802	2.28374774451368E-05
1	232	90.0591297726226	0.867462158203125	0.8673095703125	3.4149169921875E-07	2.96179024417143E-07	2539767.75	2.28721146413591E-05
1	233	90.1598377723683	0.857391357421875	0.85723876953125	3.36608886718751E-07	2.88554190319701E-07	2546691	2.2906258891453E-05
1	234	90.260545772114	0.847320556640625	0.84747314453125	3.31726074218749E-07	2.8112893346588E-07	2554738	2.29399138333974E-05
1	235	90.3612537718598	0.837249755859375	0.83709716796875	3.25622558593749E-07	2.72577722171263E-07	2570759.25	2.29730139835738E-05
1	236	90.4619617716055	0.827178955078125	0.82733154296875	3.2012939453125E-07	2.64853127873721E-07	2584366.25	2.30055284191621E-05
1	237	90.5626697713512	0.817108154296875	0.8172607421875	3.15246582031251E-07	2.57638646417035E-07	2592449.25	2.30375226237811E-05
1	238	90.663377771097	0.807037353515625	0.80718994140625	3.10668945312501E-07	2.50768835030613E-07	2598232	2.30690402531764E-05
1	239	90.7640857708427	0.796966552734375	0.79620361328125	3.0517578125E-07	2.42982054032836E-07	2609000	2.3100050384528E-05
1	240	90.8647937705884	0.786895751953125	0.787353515625	2.9937744140625E-07	2.35715873486697E-07	2629969.5	2.31304929911857E-05
1	241	90.9655017703342	0.776824951171875	0.7769775390625	2.9327392578125E-07	2.27867261060055E-07	2649323.5	2.31603353313403E-05
1	242	91.0662097700799	0.766754150390625	0.76690673828125	2.86254882812501E-07	2.1953078999104E-07	2679104.5	2.3189515559352E-05
1	243	91.1669177698257	0.756683349609375	0.7568359375	2.78625488281251E-07	2.10873778883069E-07	2716319.75	2.32179609156447E-05
1	244	91.2676257695714	0.746612548828125	0.746551513671875	2.70996093750001E-07	2.02312534725024E-07	2754842.5	2.32456350204302E-05
1	245	91.3683337693171	0.736541748046875	0.736480712890625	2.64587402343749E-07	1.94863503111264E-07	2783506.5	2.32726051763166E-05
1	246	91.4690417690629	0.726470947265625	0.72637939453125	2.58789062500001E-07	1.87979026122775E-07	2806839.75	2.32989586947951E-05
1	247	91.5697497688086	0.716400146484375	0.71630859375	2.52380371093749E-07	1.8078223718021E-07	2838210.25	2.33246973948553E-05
1	248	91.6704577685543	0.706329345703125	0.706268310546875	2.459716796875E-07	1.73722000340604E-07	2871340	2.33497921726666E-05
1	249	91.7711657683001	0.696258544921875	0.6961669921875	2.398681640625E-07	1.66988300520643E-07	2902290	2.33742557611549E-05
1	250	91.8718737680458	0.686187744140625	0.68609619140625	2.32849121093751E-07	1.59756893935992E-07	2946527	2.33980590564897E-05
1	251	91.9725817677916	0.676116943359375	0.676025390625	2.2735595703125E-07	1.53698394456114E-07	2973422.75	2.34212329814909E-05
1	252	92.0732897675373	0.666046142578125	0.665985107421875	2.21862792968749E-07	1.47757319268749E-07	3001788.25	2.3443852114724E-05
1	253	92.173997767283	0.655975341796875	0.655914306640625	2.1820068359375E-07	1.43120942652786E-07	3006014	2.3466011043638E-05
1	254	92.2747057670288	0.645904541015625	0.6458740234375	2.1484375E-07	1.38762004553428E-07	3006250	2.34878170886077E-05
1	255	92.3754137667745	0.635833740234375	0.63580322265625	2.1209716796875E-07	1.34852058408796E-07	2997698	2.35093157243682E-05
1	256	92.4761217665202	0.625762939453125	0.625732421875	2.08740234375E-07	1.30615532611955E-07	2997660.75	2.35305051319301E-05
1	257	92.576829766266	0.615692138671875	0.6156005859375	2.05078124999999E-07	1.262462063778E-07	3001785.75	2.35513434745371E-05
1	258	92.6775377660117	0.605621337890625	0.605560302734375	2.0111083984375E-07	1.21784736961672E-07	3011077.5	2.35717961913906E-05
1	259	92.7782457657574	0.595550537109375	0.59552001953125	1.971435546875E-07	1.17402933597077E-07	3020743	2.35918505495647E-05
1	260	92.8789537655032	0.585479736328125	0.58544921875	1.94396972656249E-07	1.13809548452082E-07	3011617.25	2.36115665757097E-05
1	261	92.9796617652489	0.575408935546875	0.57537841796875	1.9195556640625E-07	1.10447089696208E-07	2997456.25	2.36310206673807E-05
1	262	93.0803697649947	0.565338134765625	0.565338134765625	1.88598632812501E-07	1.06621996565082E-07	2997572.75	2.36501819017576E-05
1	263	93.1810777647404	0.555267333984375	0.55517578125	1.8585205078125E-07	1.03180553878701E-07	2987192.25	2.36690375459148E-05
1	264	93.2817857644861	0.545196533203125	0.545166015625	1.812744140625E-07	9.88246497968248E-08	3007407.5	2.3687523935223E-05
1	265	93.3824937642319	0.535125732421875	0.53509521484375	1.7669677734375E-07	9.45495983728506E-08	3028324.75	2.37055501202121E-05
1	266	93.4832017639776	0.525054931640625	0.5250244140625	1.71813964843751E-07	9.02065266927821E-08	3055772.75	2.37230979109881E-05
1	267	93.5839097637233	0.514984130859375	0.514984130859375	1.6815185546875E-07	8.65955414042219E-08	3062613.5	2.37402164202649E-05
1	268	93.6846177634691	0.504913330078125	0.504913330078125	1.65405273437499E-07	8.35153244338471E-08	3052583	2.37570129684173E-05
1	269	93.7853257632148	0.494842529296875	0.494842529296875	1.6204833984375E-07	8.01884070256165E-08	3053672.25	2.37735021073604E-05
1	270	93.8860337629606	0.484771728515625	0.4847412109375	1.5869140625E-07	7.69242660680902E-08	3054615.5	2.37896529142745E-05
1	271	93.9867417627063	0.474700927734375	0.47467041015625	1.556396484375E-07	7.38775298714245E-08	3049804	2.38054799410747E-05
1	272	94.087449762452	0.464630126953125	0.464599609375	1.51977539062501E-07	7.06086993318422E-08	3057028.25	2.38209704548353E-05
1	273	94.1881577621978	0.454559326171875	0.454559326171875	1.48620605468749E-07	6.75568827546158E-08	3058521.75	2.38361062656622E-05
1	274	94.2888657619435	0.444488525390625	0.444488525390625	1.45874023437501E-07	6.48393339020004E-08	3047071	2.38509346672799E-05
1	275	94.3895737616892	0.434417724609375	0.4344482421875	1.434326171875E-07	6.23140508082543E-08	3028936.25	2.38655029534129E-05
1	276	94.490281761435	0.424346923828125	0.42431640625	1.4190673828125E-07	6.02133596316889E-08	2990107.5	2.38798711507116E-05
1	277	94.5909897611807	0.414276123046875	0.41424560546875	1.4068603515625E-07	5.82785695257826E-08	2944468.75	2.38941011048155E-05
1	278	94.6916977609264	0.404205322265625	0.404205322265625	1.3885498046875E-07	5.61259199116648E-08	2910989.25	2.39081764448201E-05
1	279	94.7924057606722	0.394134521484375	0.394134521484375	1.373291015625E-07	5.41261364617185E-08	2870000	2.39220826188102E-05
1	280	94.8931137604179	0.384063720703125	0.38409423828125	1.34887695312499E-07	5.18095824020293E-08	2847511.5	2.39357905229554E-05
1	281	94.9938217601637	0.373992919921875	0.373992919921875	1.32141113281251E-07	4.94198388878431E-08	2830254	2.39492364926264E-05
1	282	95.0945297599094	0.363922119140625	0.3638916015625	1.2969970703125E-07	4.71966323800643E-08	2805647.25	2.39624205278233E-05
1	283	95.1952377596551	0.353851318359375	0.3538818359375	1.2786865234375E-07	4.52503918779712E-08	2767542	2.39753899222706E-05
1	284	95.2959457594009	0.343780517578125	0.343780517578125	1.2664794921875E-07	4.35390958841708E-08	2714457.75	2.39882065216079E-05
1	285	95.3966537591466	0.333709716796875	0.333709716796875	1.24511718750001E-07	4.15507699358386E-08	2680147.25	2.40008539549308E-05
1	286	95.4973617588923	0.323638916015625	0.323638916015625	1.21459960937501E-07	3.93091710293447E-08	2664572.75	2.40132394537795E-05
1	287	95.5980697586381	0.313568115234375	0.313568115234375	1.1749267578125E-07	3.68419570406786E-08	2668831.25	2.4025272068684E-05
1	288	95.6987777583838	0.303497314453125	0.303466796875	1.1260986328125E-07	3.4173353924416E-08	2694851	2.40368572121952E-05
1	289	95.7994857581295	0.293426513671875	0.29345703125	1.080322265625E-07	3.17028145957465E-08	2716384.25	2.4047967599472E-05
1	290	95.9001937578753	0.283355712890625	0.2833251953125	1.0345458984375E-07	2.93112911720073E-08	2738643	2.40586177824298E-05
1	291	96.000901757621	0.273284912109375	0.27325439453125	9.94873046874997E-08	2.71853419775425E-08	2746625.75	2.40688368648989E-05
1	292	96.1016097573668	0.263214111328125	0.26324462890625	9.52148437499995E-08	2.50647964605832E-08	2764743.5	2.4078641217784E-05
1	293	96.2023177571125	0.253143310546875	0.253143310546875	9.09423828125006E-08	2.3021454964578E-08	2783557.25	2.40880144701805E-05
1	294	96.3030257568582	0.243072509765625	0.243072509765625	8.57543945312497E-08	2.08445349869635E-08	2834519.5	2.40969111473532E-05
1	295	96.403733756604	0.233001708984375	0.233001708984375	7.99560546874995E-08	1.8629897624578E-08	2914122.25	2.41052566707367E-05
1	296	96.5044417563497	0.222930908203125	0.22296142578125	7.44628906250003E-08	1.66023514935887E-08	2994262.25	2.41130310314475E-05
1	297	96.6051497560954	0.212860107421875	0.212799072265625	6.866455078125E-08	1.4611751808502E-08	3099111.25	2.41202378674643E-05
1	298	96.7058577558412	0.202789306640625	0.202850341796875	6.34765625000006E-08	1.28762422946238E-08	3195673	2.41268917307025E-05
1	299	96.8065657555869	0.192718505859375	0.19268798828125	5.85937499999994E-08	1.12903117965857E-08	3288541.75	2.41330399148865E-05
1	300	96.9072737553327	0.182647705078125	0.182586669921875	5.43212890625006E-08	9.9183425916749E-09	3361236	2.41387242567725E-05
1	301	97.0079817550784	0.172576904296875	0.17254638671875	4.79125976562494E-08	8.26714519064353E-09	3601274	2.41438719967846E-05
1	302	97.1086897548241	0.162506103515625	0.162506103515625	3.99780273437497E-08	6.49667342145221E-09	4064885.5	2.41482975980034E-05
1	303	97.2093977545699	0.152435302734375	0.152435302734375	2.92968749999997E-08	4.46587788971442E-09	5203125	2.41517864196794E-05
1	304	97.3101057543156	0.142364501953125	0.142425537109375	1.49536132812503E-08	2.12977635527523E-09	9524490	2.41540146816988E-05
1	305	97.4108137540613	0.132293701171875	0.132293701171875	-2.74658203125028E-09	-3.63355512345009E-10	-48166664	2.41546295001172E-05
1	306	97.5115217538071	0.122222900390625	0.122283935546875	-2.44140625E-08	-2.98544766685893E-09	-5008750	2.41532616200857E-05
1	307	97.6122297535528	0.112152099609375	0.112152099609375	-5.52368164062497E-08	-6.19492457332171E-09	-2030386.875	2.41492507484509E-05
1	308	97.7129377532985	0.102081298828125	0.10211181640625	-9.67407226562494E-08	-9.87837101007472E-09	-1055520.5	2.41415982600302E-05
1	309	97.8136457530443	0.092010498046875	0.092041015625	-1.5411376953125E-07	-1.41847875667622E-08	-597227.75	2.41289671976119E-05
1	310	97.91435375279	0.081939697265625	0.08203125	-2.3193359375E-07	-1.90258013788025E-08	-353684.21875	2.41095276578562E-05
1	311	98.0150617525358	0.071868896484375	0.071868896484375	-3.3721923828125E-07	-2.4235573548026E-08	-213122.171875	2.40808694798034E-05
1	312	98.1157697522815	0.061798095703125	0.061798095703125	-4.7119140625E-07	-2.91187305379026E-08	-131152.859375	2.40401623159414E-05
1	313	98.2164777520272	0.051727294921875	0.05181884765625	-6.3812255859375E-07	-3.30667724313116E-08	-81205.171875	2.39843029703479E-05
1	314	98.317185751773	0.041656494140625	0.041766357421875	-8.32519531250001E-07	-3.47713076109812E-08	-50168.62109375	2.39102500927402E-05
1	315	98.4178937515187	0.031585693359375	0.031695556640625	-1.04766845703125E-06	-3.32064331587389E-08	-30253.421875	2.38155753322644E-05
1	316	98.5186017512644	0.021514892578125	0.021636962890625	-1.26495361328125E-06	-2.7369752686468E-08	-17104.947265625	2.36991254496388E-05
1	317	98.6193097510102	0.011444091796875	0.0115264892578125	-1.46514892578125E-06	-1.68880234241442E-08	-7867.111328125	2.35616553254658E-05
1	318	98.7200177507559	0.001373291015625	0.0014678955078125	-1.62841796875E-06	-2.39034725346698E-09	-901.424255371094	2.3405880710925E-05
1	319	98.8207257505017	-0.008697509765625	-0.00859375	-1.7401123046875E-06	1.49540895222344E-08	4938.6181640625	2.32362617680337E-05
1	320	98.9214337502474	-0.018768310546875	-0.018682861328125	-1.79656982421875E-06	3.35650653937591E-08	10399.1845703125	2.3058175429469E-05
1	321	99.0221417499931	-0.028839111328125	-0.0287017822265625	-1.80328369140625E-06	5.17574569869339E-08	15916.3984375	2.28769094974268E-05
1	322	99.1228497497389	-0.038909912109375	-0.03875732421875	-1.7718505859375E-06	6.86721861598016E-08	21873.923828125	2.26968859351473E-05
1	323	99.2235577494846	-0.048980712890625	-0.048822021484375	-1.71783447265625E-06	8.38681515347162E-08	28420.681640625	2.2521167920786E-05
1	324	99.3242657492303	-0.059051513671875	-0.059051513671875	-1.65191650390625E-06	9.75481668774592E-08	35747.27734375	2.2351487132255E-05
1	325	99.4249737489761	-0.069122314453125	-0.069061279296875	-1.58416748046875E-06	1.09404631132293E-07	43594.68359375	2.21885366045171E-05
1	326	99.5256817487218	-0.079193115234375	-0.07916259765625	-1.5185546875E-06	1.20212732213076E-07	52130.2265625	2.20323017856572E-05
1	327	99.6263897484675	-0.089263916015625	-0.0892333984375	-1.4581298828125E-06	1.30113889440509E-07	61197.15234375	2.18824152398156E-05
1	328	99.7270977482133	-0.099334716796875	-0.099273681640625	-1.4031982421875E-06	1.39300652790553E-07	70748.15625	2.17383349081501E-05
1	329	99.827805747959	-0.109405517578125	-0.109344482421875	-1.35467529296875E-06	1.48126275689719E-07	80716.375	2.15994659811258E-05
1	330	99.9285137477048	-0.119476318359375	-0.11932373046875	-1.31256103515625E-06	1.56619677227354E-07	90909.09375	2.14651590795256E-05
1	331	100.02922174745	-0.129547119140625	-0.129486083984375	-1.2750244140625E-06	1.65097915783008E-07	101555.7734375	2.13348630495602E-05
1	332	100.129929747196	-0.139617919921875	-0.139495849609375	-1.2445068359375E-06	1.73603538655698E-07	112089.2578125	2.12079958146205E-05
1	333	100.230637746942	-0.149688720703125	-0.149627685546875	-1.21917724609375E-06	1.8242266719426E-07	122728.4140625	2.10839389183093E-05
1	334	100.331345746688	-0.159759521484375	-0.159698486328125	-1.1993408203125E-06	1.91532905091663E-07	133155.21875	2.09621575777419E-05
1	335	100.432053746433	-0.169830322265625	-0.169647216796875	-1.182861328125E-06	2.00669120431485E-07	143421.0625	2.08422043215251E-05
1	336	100.532761746179	-0.179901123046875	-0.17974853515625	-1.16912841796875E-06	2.10149110557722E-07	153745.765625	2.07237717404496E-05
1	337	100.633469745925	-0.189971923828125	-0.189788818359375	-1.158447265625E-06	2.19860339711886E-07	163830.34375	2.06065687962109E-05
1	338	100.734177745671	-0.200042724609375	-0.199920654296875	-1.15081787109375E-06	2.3007225991023E-07	173720.5	2.04902880795998E-05
1	339	100.834885745416	-0.189971923828125	-0.189788818359375	-9.95788574218751E-07	1.88989531579864E-07	190591.484375	2.03821982722729E-05
2	340	100.935593745162	-0.179901123046875	-0.179840087890625	-8.929443359375E-07	1.60587177333582E-07	201401.234375	2.02870924113085E-05
2	341	101.036301744908	-0.169830322265625	-0.169677734375	-8.123779296875E-07	1.37842434355662E-07	208865.53125	2.02012233785354E-05
2	342	101.137009744654	-0.159759521484375	-0.159637451171875	-7.4462890625E-07	1.18870659093773E-07	214385.25	2.01228212972637E-05
2	343	101.237717744399	-0.149688720703125	-0.149566650390625	-6.85729980468749E-07	1.02562331960598E-07	218113.046875	2.00507965928409E-05
2	344	101.338425744145	-0.139617919921875	-0.1395263671875	-6.3140869140625E-07	8.80981616546705E-08	220976.328125	1.99844744201982E-05
2	345	101.439133743891	-0.129547119140625	-0.12945556640625	-5.80749511718751E-07	7.51812549992792E-08	222911.203125	1.99234364117729E-05
2	346	101.539841743637	-0.119476318359375	-0.119415283203125	-5.3253173828125E-07	6.3592423771297E-08	224240.703125	1.98673787963344E-05
2	347	101.640549743382	-0.109405517578125	-0.109283447265625	-4.86145019531251E-07	5.31276000970138E-08	224796	1.98160832951544E-05
2	348	101.741257743128	-0.099334716796875	-0.099365234375	-4.40063476562499E-07	4.37270095687836E-08	225797.5	1.97694462258369E-05
2	349	101.841965742874	-0.089263916015625	-0.089263916015625	-3.93066406250001E-07	3.50866464771116E-08	227096.28125	1.97274948732229E-05
2	350	101.942673742619	-0.079193115234375	-0.07916259765625	-3.41796875E-07	2.70575277738772E-08	231607.15625	1.96904911717866E-05
2	351	102.043381742365	-0.069122314453125	-0.069091796875	-2.838134765625E-07	1.96091836102141E-08	243440.859375	1.9658989913296E-05
2	352	102.144089742111	-0.059051513671875	-0.059051513671875	-2.13623046875E-07	1.26147634560425E-08	276428.59375	1.96339406102197E-05
2	353	102.244797741857	-0.048980712890625	-0.0488250732421875	-1.27563476562501E-07	6.2282956569959E-09	382751.21875	1.96167602553032E-05
2	354	102.345505741602	-0.038909912109375	-0.0387420654296875	-2.13623046875E-08	8.27619750509712E-10	1813571.5	1.96092623809818E-05
2	355	102.446213741348	-0.028839111328125	-0.0286956787109375	1.116943359375E-07	-3.20514459417609E-09	-256912.5625	1.96138098544907E-05
2	356	102.546921741094	-0.018768310546875	-0.0186798095703125	2.728271484375E-07	-5.09635889045512E-09	-68467.5546875	1.96331729966914E-05
2	357	102.64762974084	-0.008697509765625	-0.0086090087890625	4.62951660156249E-07	-3.98555499714348E-09	-18595.9140625	1.96702221728629E-05
2	358	102.748337740585	0.001373291015625	0.00147094726562499	6.7718505859375E-07	9.96103532990844E-10	2172.14965820313	1.97276331164176E-05
2	359	102.849045740331	0.011444091796875	0.0115570068359375	9.02709960937501E-07	1.04326254302123E-08	12802.5703125	1.98071866179816E-05
2	360	102.949753740077	0.021514892578125	0.021624755859375	1.1199951171875E-06	2.42196200872513E-08	19307.90234375	1.99090372916544E-05
2	361	103.050461739823	0.031585693359375	0.031658935546875	1.30889892578125E-06	4.1438344311473E-08	24187.458984375	2.003134250117E-05
2	362	103.151169739568	0.041656494140625	0.0417205810546875	1.4532470703125E-06	6.0630306109033E-08	28708.525390625	2.01704278879333E-05
2	363	103.251877739314	0.051727294921875	0.0518798828125	1.54327392578125E-06	8.00648720655772E-08	33616.76953125	2.03213148779469E-05
2	364	103.35258573906	0.061798095703125	0.06182861328125	1.57928466796875E-06	9.76449783252065E-08	39149.76171875	2.04785483219894E-05
2	365	103.453293738806	0.071868896484375	0.071868896484375	1.573486328125E-06	1.13084723807333E-07	45674.94140625	2.06373024411732E-05
2	366	103.554001738551	0.081939697265625	0.0819091796875	1.539306640625E-06	1.26083335771909E-07	53211.73828125	2.07940447580768E-05
2	367	103.654709738297	0.092010498046875	0.092010498046875	1.4898681640625E-06	1.37083517870451E-07	61757.4765625	2.09465742955217E-05
2	368	103.755417738043	0.102081298828125	0.102081298828125	1.43402099609375E-06	1.46386724964032E-07	71185.359375	2.10938051168341E-05
2	369	103.856125737788	0.112152099609375	0.1121826171875	1.37664794921875E-06	1.54435966237543E-07	81489.6953125	2.12353334063664E-05
2	370	103.956833737534	0.122222900390625	0.122222900390625	1.3226318359375E-06	1.61655890451584E-07	92408.8671875	2.13712519325782E-05
2	371	104.05754173728	0.132293701171875	0.132354736328125	1.27197265625E-06	1.68351604656891E-07	104054.703125	2.15019008464878E-05
2	372	104.158249737026	0.142364501953125	0.1424560546875	1.22650146484375E-06	1.74722558199392E-07	116148.296875	2.16277094295947E-05
2	373	104.258957736771	0.152435302734375	0.1524658203125	1.18560791015625E-06	1.80764672563782E-07	128597.171875	2.17491688090377E-05
2	374	104.359665736517	0.162506103515625	0.16253662109375	1.1492919921875E-06	1.86802026291844E-07	141423.265625	2.18667410081252E-05
2	375	104.460373736263	0.172576904296875	0.17254638671875	1.11785888671875E-06	1.92882509963965E-07	154354.34375	2.19809007830918E-05
2	376	104.561081736009	0.182647705078125	0.1826171875	1.090087890625E-06	1.99068779238587E-07	167525.203125	2.20920792344259E-05
2	377	104.661789735754	0.192718505859375	0.19268798828125	1.0662841796875E-06	2.05460153779313E-07	180709.78125	2.22006619878812E-05
2	378	104.7624977355	0.202789306640625	0.20281982421875	1.04339599609375E-06	2.11621383527927E-07	194384.328125	2.23068927880377E-05
2	379	104.863205735246	0.212860107421875	0.212921142578125	1.02203369140625E-06	2.17612566189018E-07	208330.859375	2.24108953261748E-05
2	380	104.963913734992	0.222930908203125	0.222930908203125	1.002197265625E-06	2.23420741463087E-07	222442.15625	2.25128223974025E-05
2	381	105.064621734737	0.233001708984375	0.232940673828125	9.8480224609375E-07	2.29400498596988E-07	236535.484375	2.26128759095445E-05
2	382	105.165329734483	0.243072509765625	0.24310302734375	9.6954345703125E-07	2.35698934147877E-07	250739.703125	2.27112850552658E-05
2	383	105.266037734229	0.253143310546875	0.253173828125	9.5550537109375E-07	2.41908935549873E-07	264963.28125	2.28082190005807E-05
2	384	105.366745733975	0.263214111328125	0.26318359375	9.43603515624999E-07	2.48340967345939E-07	278913.34375	2.29038469115039E-05
2	385	105.46745373372	0.273284912109375	0.27325439453125	9.32922363281249E-07	2.54925112130877E-07	292901.5625	2.29983379540499E-05
2	386	105.568161733466	0.283355712890625	0.283355712890625	9.228515625E-07	2.61495245013066E-07	307043.65625	2.30917830776889E-05
2	387	105.668869733212	0.293426513671875	0.293365478515625	9.136962890625E-07	2.68046960627544E-07	321075.5	2.31842604989652E-05
2	388	105.769577732957	0.303497314453125	0.303466796875	9.0545654296875E-07	2.74775999287158E-07	335153.34375	2.32758629863383E-05
2	389	105.870285732703	0.313568115234375	0.313568115234375	8.9874267578125E-07	2.81817051472899E-07	348896.4375	2.3366710593109E-05
2	390	105.970993732449	0.323638916015625	0.3236083984375	8.93554687500001E-07	2.89161789623904E-07	362158.46875	2.34569597523659E-05
2	391	106.071701732195	0.333709716796875	0.333740234375	8.90502929687501E-07	2.97196663723298E-07	374777.25	2.35467941820389E-05
2	392	106.17240973194	0.343780517578125	0.343719482421875	8.8775634765625E-07	3.05139138845334E-07	387177.75	2.36363375734072E-05
2	393	106.273117731686	0.353851318359375	0.353759765625	8.8531494140625E-07	3.13188792233632E-07	399586.34375	2.37256190303015E-05
2	394	106.373825731432	0.363922119140625	0.36395263671875	8.8348388671875E-07	3.2154628115677E-07	411951.625	2.38146840274567E-05
2	395	106.474533731178	0.373992919921875	0.373992919921875	8.8226318359375E-07	3.29960187173128E-07	423901.78125	2.3903596229502E-05
2	396	106.575241730923	0.384063720703125	0.384063720703125	8.807373046875E-07	3.38259241061678E-07	436070.6875	2.39923720073421E-05
2	397	106.675949730669	0.394134521484375	0.394134521484375	8.79821777343751E-07	3.46768132430952E-07	447970.875	2.40810222749133E-05
2	398	106.776657730415	0.404205322265625	0.404205322265625	8.80126953125E-07	3.55752007408228E-07	459257.96875	2.4169643438654E-05
2	399	106.877365730161	0.414276123046875	0.41424560546875	8.80126953125E-07	3.64588714774072E-07	470665.75	2.425827915431E-05
2	400	106.978073729906	0.424346923828125	0.424346923828125	8.80126953125E-07	3.7347916759245E-07	482142.875	2.4346914869966E-05
2	401	107.078781729652	0.434417724609375	0.43438720703125	8.8043212890625E-07	3.82448433811078E-07	493379.5625	2.44355651375372E-05
2	402	107.179489729398	0.444488525390625	0.444549560546875	8.795166015625E-07	3.90988702747563E-07	505447.625	2.4524186301278E-05
2	403	107.280197729144	0.454559326171875	0.45452880859375	8.78295898437501E-07	3.99210762225266E-07	517512.1875	2.46126983256545E-05
2	404	107.380905728889	0.464630126953125	0.464599609375	8.77685546875E-07	4.07772347443824E-07	529346.3125	2.47011194005609E-05
2	405	107.481613728635	0.474700927734375	0.474639892578125	8.77685546875E-07	4.1658455529614E-07	540785.8125	2.47895095526474E-05
2	406	107.582321728381	0.484771728515625	0.4847412109375	8.7890625E-07	4.26042078061073E-07	551527.8125	2.48779615503736E-05
2	407	107.683029728126	0.494842529296875	0.49481201171875	8.80126953125E-07	4.3549738393267E-07	562205.25	2.49665354203898E-05
2	408	107.783737727872	0.504913330078125	0.504852294921875	8.819580078125E-07	4.45258507397739E-07	572422.1875	2.50552639045054E-05
2	409	107.884445727618	0.514984130859375	0.51495361328125	8.84094238281249E-07	4.55267525012459E-07	582464.625	2.5144190658466E-05
2	410	107.985153727364	0.525054931640625	0.5250244140625	8.85620117187499E-07	4.6497214611918E-07	592832.5625	2.52333029493457E-05
2	411	108.085861727109	0.535125732421875	0.5350341796875	8.8836669921875E-07	4.7530653546346E-07	602267.25	2.5322629880975E-05
2	412	108.186569726855	0.545196533203125	0.545196533203125	8.9141845703125E-07	4.85998214116989E-07	611605.625	2.54122496698983E-05
2	413	108.287277726601	0.555267333984375	0.555206298828125	8.953857421875E-07	4.97123778586683E-07	620075	2.55022223427659E-05
2	414	108.387985726347	0.565338134765625	0.565277099609375	9.0057373046875E-07	5.09073686316697E-07	627685.5625	2.5592657038942E-05
2	415	108.488693726092	0.575408935546875	0.575347900390625	9.0667724609375E-07	5.21654840213159E-07	634567.5	2.5683659259812E-05
2	416	108.589401725838	0.585479736328125	0.58551025390625	9.130859375E-07	5.34621165115823E-07	641243.3125	2.57752908510156E-05
2	417	108.690109725584	0.595550537109375	0.59552001953125	9.17968750000001E-07	5.46668786682858E-07	648736.6875	2.58674917859025E-05
2	418	108.79081772533	0.605621337890625	0.605621337890625	9.2376708984375E-07	5.5945304211491E-07	655599.625	2.59602311416529E-05
2	419	108.891525725075	0.615692138671875	0.61566162109375	9.28955078125E-07	5.71921987102542E-07	662746.4375	2.6053523470182E-05
2	420	108.992233724821	0.625762939453125	0.625732421875	9.3414306640625E-07	5.84523604629794E-07	669846.5	2.61473378486698E-05
2	421	109.092941724567	0.635833740234375	0.6357421875	9.40551757812499E-07	5.97948428548989E-07	675924.75	2.62417361227563E-05
2	422	109.193649724313	0.645904541015625	0.645843505859375	9.46655273437499E-07	6.11391158145125E-07	682237.3125	2.63367637671763E-05
2	423	109.294357724058	0.655975341796875	0.655975341796875	9.527587890625E-07	6.24986228103808E-07	688501	2.64324080490042E-05
2	424	109.395065723804	0.666046142578125	0.66595458984375	9.58251953125E-07	6.38152243936929E-07	694968.1875	2.65286344074411E-05
2	425	109.49577372355	0.676116943359375	0.676055908203125	9.6282958984375E-07	6.509266086141E-07	702155.375	2.66253682639217E-05
2	426	109.596481723295	0.686187744140625	0.68609619140625	9.66491699218749E-07	6.63106277443148E-07	709883.1875	2.67225168499863E-05
2	427	109.697189723041	0.696258544921875	0.696197509765625	9.6954345703125E-07	6.74993714255834E-07	718067.375	2.68200037680799E-05
2	428	109.797897722787	0.706329345703125	0.70623779296875	9.72900390625001E-07	6.87098975049594E-07	725909.6875	2.69178144662874E-05
2	429	109.898605722533	0.716400146484375	0.71630859375	9.771728515625E-07	6.99957297456422E-07	733041.875	2.7016008971259E-05
2	430	109.999313722278	0.726470947265625	0.726409912109375	9.808349609375E-07	7.12488201770611E-07	740603.6875	2.711460183491E-05
2	431	110.100021722024	0.736541748046875	0.736419677734375	9.8541259765625E-07	7.25677239188371E-07	747321.125	2.7213609428145E-05
2	432	110.20072972177	0.746612548828125	0.746490478515625	9.88159179687501E-07	7.37651419058238E-07	755435.4375	2.73129880952183E-05
2	433	110.301437721516	0.756683349609375	0.75653076171875	9.9151611328125E-07	7.50112462810648E-07	763004	2.74126723525114E-05
2	434	110.402145721261	0.766754150390625	0.76690673828125	9.93957519531249E-07	7.62272748033865E-07	771568.9375	2.75126494670985E-05
2	435	110.502853721007	0.776824951171875	0.77728271484375	9.967041015625E-07	7.74720888330194E-07	779853	2.76128866971703E-05
2	436	110.603561720753	0.786895751953125	0.7867431640625	1.00006103515625E-06	7.86791190421354E-07	786695.125	2.77134313364513E-05
2	437	110.704269720499	0.796966552734375	0.79681396484375	1.00433349609375E-06	8.00266946043848E-07	793375.875	2.78143616014859E-05
2	438	110.804977720244	0.807037353515625	0.8074951171875	1.00921630859375E-06	8.14937209270283E-07	800121	2.79157502518501E-05
2	439	110.90568571999	0.817108154296875	0.8172607421875	1.01409912109375E-06	8.28783356610074E-07	805898.3125	2.80176336673321E-05
2	440	111.006393719736	0.827178955078125	0.82733154296875	1.0186767578125E-06	8.42783379084722E-07	812163	2.81199918390485E-05
2	441	111.107101719482	0.837249755859375	0.83770751953125	1.02203369140625E-06	8.56165286222677E-07	819647.6875	2.82227501884336E-05
2	442	111.207809719227	0.847320556640625	0.84716796875	1.025390625E-06	8.6867805748625E-07	826190.5	2.83258450508583E-05
2	443	111.308517718973	0.857391357421875	0.85784912109375	1.02874755859375E-06	8.82510164501582E-07	833877.1875	2.84292800643016E-05
2	444	111.409225718719	0.867462158203125	0.867919921875	1.0333251953125E-06	8.9684345994101E-07	839929.1875	2.85331134364242E-05
2	445	111.509933718464	0.877532958984375	0.877685546875	1.03759765625E-06	9.10684434529685E-07	845882.375	2.86373924609507E-05
2	446	111.61064171821	0.887603759765625	0.887451171875	1.04217529296875E-06	9.24879714148119E-07	851537.3125	2.8742117137881E-05
2	447	111.711349717956	0.897674560546875	0.8978271484375	1.04644775390625E-06	9.3952922952667E-07	857976.0625	2.88472874672152E-05
2	448	111.812057717702	0.907745361328125	0.90789794921875	1.0498046875E-06	9.53115431912011E-07	864825.625	2.89528416033136E-05
2	449	111.912765717447	0.917816162109375	0.91796875	1.0528564453125E-06	9.66489324127906E-07	871884.0625	2.90587195195258E-05
2	450	112.013473717193	0.927886962890625	0.927734375	1.05499267578125E-06	9.78752950686612E-07	879375.25	2.91648575512227E-05
2	451	112.114181716939	0.937957763671875	0.9381103515625	1.0577392578125E-06	9.92276113720436E-07	886901.3125	2.92712429654785E-05
2	452	112.214889716685	0.948028564453125	0.948486328125	1.0601806640625E-06	1.00556690085796E-06	894645.9375	2.93778884952189E-05
2	453	112.31559771643	0.958099365234375	0.9588623046875	1.06414794921875E-06	1.0203713145529E-06	901061.125	2.94848578050733E-05
2	454	112.416305716176	0.968170166015625	0.96832275390625	1.06842041015625E-06	1.03457580280519E-06	906312.5	2.95922400255222E-05
2	455	112.517013715922	0.978240966796875	0.9783935546875	1.0723876953125E-06	1.04921718957485E-06	912350.5625	2.97000387945445E-05
2	456	112.617721715668	0.988311767578125	0.9881591796875	1.07635498046875E-06	1.0636099432304E-06	918060.75	2.98082359222462E-05
2	457	112.718429715413	0.998382568359375	0.99822998046875	1.0797119140625E-06	1.07780078906217E-06	924533.6875	2.99168023047969E-05
2	458	112.819137715159	1.00845336914063	1.00799560546875	1.08367919921875E-06	1.09234383671719E-06	930160.5	3.00257379421964E-05
2	459	112.919845714905	1.01852416992188	1.0186767578125	1.087646484375E-06	1.10796008812031E-06	936588.1875	3.01350737572648E-05
2	460	113.020553714651	1.02859497070313	1.0284423828125	1.092529296875E-06	1.1236033969908E-06	941340.8125	3.02448534057476E-05
2	461	113.121261714396	1.03866577148438	1.03851318359375	1.09893798828125E-06	1.14126157768624E-06	945015.25	3.03552023979137E-05
2	462	113.221969714142	1.04873657226563	1.048583984375	1.10504150390625E-06	1.15872887818114E-06	948909.125	3.04661825794028E-05
2	463	113.322677713888	1.05880737304688	1.0589599609375	1.11114501953125E-06	1.1766580882977E-06	953034.875	3.05777757603209E-05
2	464	113.423385713633	1.06887817382813	1.06903076171875	1.1163330078125E-06	1.19339438242605E-06	957627.125	3.06899382849224E-05
2	465	113.524093713379	1.07894897460938	1.0791015625	1.12091064453125E-06	1.20957633953367E-06	962700.8125	3.08025919366628E-05
2	466	113.624801713125	1.08901977539063	1.08917236328125	1.12518310546875E-06	1.22551830372686E-06	967995.6875	3.09156930597965E-05
2	467	113.725509712871	1.09909057617188	1.0992431640625	1.12884521484375E-06	1.24087534913997E-06	973776.75	3.10291907226201E-05
2	468	113.826217712616	1.10916137695313	1.1090087890625	1.1334228515625E-06	1.25697590647178E-06	978459.875	3.11431067530066E-05
2	469	113.926925712362	1.11923217773438	1.119384765625	1.1383056640625E-06	1.27420196349703E-06	983378.0625	3.1257495720638E-05
2	470	114.027633712108	1.12930297851563	1.129150390625	1.14288330078125E-06	1.29048714825331E-06	987983.9375	3.13723649014719E-05
2	471	114.128341711854	1.13937377929688	1.1395263671875	1.1474609375E-06	1.30756200178439E-06	993085.125	3.14876924676355E-05
2	472	114.229049711599	1.14944458007813	1.1492919921875	1.15081787109375E-06	1.32262573515618E-06	998674.125	3.16034202114679E-05
2	473	114.329757711345	1.15951538085938	1.15966796875	1.153564453125E-06	1.33775176891504E-06	1005291	3.17194535455201E-05
2	474	114.430465711091	1.16958618164063	1.16943359375	1.156005859375E-06	1.35187212890742E-06	1011615.625	3.18357488140464E-05
2	475	114.531173710837	1.17965698242188	1.17950439453125	1.158447265625E-06	1.36639368975011E-06	1018177	3.19522914651316E-05
2	476	114.631881710582	1.18972778320313	1.18927001953125	1.16302490234375E-06	1.38315056119609E-06	1022566.25	3.2069187000161E-05
2	477	114.732589710328	1.19979858398438	1.19964599609375	1.1669921875E-06	1.39997757742094E-06	1027981.125	3.21865118166897E-05
2	478	114.833297710074	1.20986938476563	1.209716796875	1.17279052734375E-06	1.418744318471E-06	1031485.875	3.23043313983362E-05
2	479	114.93400570982	1.21994018554688	1.21978759765625	1.17889404296875E-06	1.43800025398377E-06	1034688.125	3.24227476085071E-05
2	480	115.034713709565	1.23001098632813	1.22955322265625	1.18377685546875E-06	1.45551655350573E-06	1038669.8125	3.25417167914566E-05
2	481	115.135421709311	1.24008178710938	1.240234375	1.190185546875E-06	1.4761091051696E-06	1042051.25	3.26612571370788E-05
2	482	115.236129709057	1.25015258789063	1.25	1.19720458984375E-06	1.49650577441207E-06	1044098.875	3.27814705087803E-05
2	483	115.336837708802	1.26022338867188	1.26007080078125	1.20513916015625E-06	1.51856067986955E-06	1045581.1875	3.29024369420949E-05
2	484	115.437545708548	1.27029418945313	1.2701416015625	1.214599609375E-06	1.54271344854351E-06	1045728.6875	3.30242801283021E-05
2	485	115.538253708294	1.28036499023438	1.280517578125	1.22650146484375E-06	1.57055671934359E-06	1044040.8125	3.31472001562361E-05
2	486	115.63896170804	1.29043579101563	1.2908935546875	1.23809814453125E-06	1.59825287937565E-06	1042642.375	3.32713025272824E-05
2	487	115.739669707785	1.30050659179688	1.30035400390625	1.24969482421875E-06	1.62504568379518E-06	1040537.25	3.33965726895258E-05
2	488	115.840377707531	1.31057739257813	1.31011962890625	1.260986328125E-06	1.65204289714893E-06	1038964.1875	3.3522996091051E-05
2	489	115.941085707277	1.32064819335938	1.32049560546875	1.27197265625E-06	1.67963435160345E-06	1038147.75	3.36505399900489E-05
2	490	116.041793707023	1.33071899414063	1.33087158203125	1.2835693359375E-06	1.70826592693629E-06	1036852.125	3.37792225764133E-05
2	491	116.142501706768	1.34078979492188	1.34033203125	1.2957763671875E-06	1.7367705140714E-06	1034385.375	3.39091020578053E-05
2	492	116.243209706514	1.35086059570313	1.351318359375	1.30828857421875E-06	1.76791434114421E-06	1032890.125	3.40402293659281E-05
2	493	116.34391770626	1.36093139648438	1.361083984375	1.32110595703125E-06	1.79813616796309E-06	1030261	3.41726299666334E-05
2	494	116.444625706006	1.37100219726563	1.370849609375	1.3330078125E-06	1.82735311682336E-06	1028388.3125	3.43062747560907E-05
2	495	116.545333705751	1.38107299804688	1.3812255859375	1.34429931640625E-06	1.85678061370709E-06	1027468.75	3.44410873367451E-05
2	496	116.646041705497	1.39114379882813	1.3909912109375	1.353759765625E-06	1.88306796644611E-06	1027502.25	3.45769440173171E-05
2	497	116.746749705243	1.40121459960938	1.4007568359375	1.36199951171875E-06	1.90782998288341E-06	1028456.25	3.47136956406757E-05
2	498	116.847457704989	1.41128540039063	1.41143798828125	1.36962890625E-06	1.93314622265461E-06	1030525.875	3.48512439813931E-05
2	499	116.948165704734	1.42135620117188	1.42120361328125	1.37725830078125E-06	1.9573644749471E-06	1031907.8125	3.49895599356387E-05
2	500	117.04887370448	1.43142700195313	1.43096923828125	1.38519287109375E-06	1.98216844182753E-06	1033046.9375	3.51286616933066E-05
2	501	117.149581704226	1.44149780273438	1.44134521484375	1.3934326171875E-06	2.00841736841539E-06	1034384.5625	3.52685747202486E-05
2	502	117.250289703971	1.45156860351563	1.45111083984375	1.40228271484375E-06	2.03486752070603E-06	1034820.5	3.54093499481678E-05
2	503	117.350997703717	1.46163940429688	1.4617919921875	1.41021728515625E-06	2.06144432013389E-06	1036572.1875	3.55509728251491E-05
2	504	117.451705703463	1.47171020507813	1.4715576171875	1.41937255859375E-06	2.08868846129917E-06	1036766.3125	3.569345062715E-05
2	505	117.552413703209	1.48178100585938	1.48223876953125	1.42822265625E-06	2.11696692531405E-06	1037820.5625	3.58368415618315E-05
2	506	117.653121702954	1.49185180664063	1.4923095703125	1.44073486328125E-06	2.15002251024998E-06	1035797.5	3.59813020622823E-05
2	507	117.7538297027	1.50192260742188	1.5020751953125	1.4544677734375E-06	2.1847199604963E-06	1032731.8125	3.61270904249977E-05
2	508	117.854537702446	1.49185180664063	1.49200439453125	1.33056640625E-06	1.98521092897863E-06	1121330.25	3.62673272320535E-05
2	509	117.955245702192	1.48178100585938	1.48193359375	1.24542236328125E-06	1.84563327820797E-06	1189904.375	3.63970393664204E-05
2	510	118.055953701937	1.47171020507813	1.4715576171875	1.17889404296875E-06	1.73481043930224E-06	1248252.75	3.65191117452923E-05
2	511	118.156661701683	1.46163940429688	1.4617919921875	1.12335205078125E-06	1.64210700859257E-06	1301276.875	3.66350395779591E-05
2	512	118.257369701429	1.45156860351563	1.451416015625	1.075439453125E-06	1.56090993641556E-06	1349602.75	3.67457578249741E-05
2	513	118.358077701175	1.44149780273438	1.441650390625	1.03363037109375E-06	1.49013362715777E-06	1394744.625	3.68519577023108E-05
2	514	118.45878570092	1.43142700195313	1.4312744140625	9.9609375E-07	1.42568342198501E-06	1436887.25	3.69541630789172E-05
2	515	118.559493700666	1.42135620117188	1.42120361328125	9.6282958984375E-07	1.36837684294733E-06	1476069.875	3.70527995983139E-05
2	516	118.660201700412	1.41128540039063	1.41082763671875	9.33227539062501E-07	1.31662318381132E-06	1511772.5	3.71482747141272E-05
2	517	118.760909700158	1.40121459960938	1.40167236328125	9.0667724609375E-07	1.2708643453152E-06	1545944.25	3.72409231204074E-05
2	518	118.861617699903	1.39114379882813	1.39068603515625	8.8043212890625E-07	1.22440462746454E-06	1579549.5	3.73309085262008E-05
2	519	118.962325699649	1.38107299804688	1.380615234375	8.55102539062499E-07	1.18056755127327E-06	1614561	3.74183000531048E-05
2	520	119.063033699395	1.37100219726563	1.3702392578125	8.31298828125E-07	1.13907822196779E-06	1648311.375	3.75032177544199E-05
2	521	119.16374169914	1.36093139648438	1.36077880859375	8.087158203125E-07	1.10048335955071E-06	1682641.5	3.75857998733409E-05
2	522	119.264449698886	1.35086059570313	1.35101318359375	7.8765869140625E-07	1.06413722278376E-06	1715226.625	3.76661846530624E-05
2	523	119.365157698632	1.34078979492188	1.34033203125	7.6873779296875E-07	1.03036381915445E-06	1743549.125	3.77445539925247E-05
2	524	119.465865698378	1.33071899414063	1.33056640625	7.5042724609375E-07	9.9849319212808E-07	1773078.625	3.78210497729015E-05
2	525	119.566573698123	1.32064819335938	1.32080078125	7.33642578125E-07	9.68995664152317E-07	1800332.875	3.78957774955779E-05
2	526	119.667281697869	1.31057739257813	1.3104248046875	7.17773437499999E-07	9.40588108733209E-07	1825680.25	3.79688644898124E-05
2	527	119.767989697615	1.30050659179688	1.30035400390625	7.01904296875E-07	9.12724090085248E-07	1852608.75	3.80403507733718E-05
2	528	119.868697697361	1.29043579101563	1.290283203125	6.87561035156251E-07	8.87148416950367E-07	1876609.125	3.81103163817897E-05
2	529	119.969405697106	1.28036499023438	1.28021240234375	6.73828125000001E-07	8.62643048549216E-07	1899909.5	3.81788668164518E-05
2	530	120.070113696852	1.27029418945313	1.27044677734375	6.610107421875E-07	8.39778977024253E-07	1921976	3.82460821128916E-05
2	531	120.170821696598	1.26022338867188	1.2603759765625	6.5032958984375E-07	8.19659760509239E-07	1938057.25	3.83121114282403E-05
2	532	120.271529696344	1.25015258789063	1.25030517578125	6.4117431640625E-07	8.01663588845258E-07	1950023.75	3.83771439373959E-05
2	533	120.372237696089	1.24008178710938	1.23992919921875	6.3201904296875E-07	7.83658833825029E-07	1961854.25	3.84412560379133E-05
2	534	120.472945695835	1.23001098632813	1.23016357421875	6.21948242187501E-07	7.65098036481504E-07	1977919.625	3.85043967980891E-05
2	535	120.573653695581	1.21994018554688	1.219482421875	6.1187744140625E-07	7.46173782317783E-07	1993017.375	3.85665262001567E-05
2	536	120.674361695327	1.20986938476563	1.20941162109375	6.02111816406251E-07	7.28201030142372E-07	2008616.375	3.86276551580522E-05
2	537	120.775069695072	1.19979858398438	1.19964599609375	5.9234619140625E-07	7.10605718268198E-07	2025244.75	3.86878018616699E-05
2	538	120.875777694818	1.18972778320313	1.18988037109375	5.8349609375E-07	6.94290577030188E-07	2039225.875	3.87470099667553E-05
2	539	120.976485694564	1.17965698242188	1.1798095703125	5.74645996093751E-07	6.7797282099491E-07	2053106.75	3.8805326767033E-05
2	540	121.077193694309	1.16958618164063	1.16912841796875	5.65185546875E-07	6.6077444671464E-07	2068574.625	3.88627195206936E-05
2	541	121.177901694055	1.15951538085938	1.15997314453125	5.55419921875E-07	6.4427217694174E-07	2088461.625	3.89191482099704E-05
2	542	121.278609693801	1.14944458007813	1.1492919921875	5.43823242187499E-07	6.25011637112038E-07	2113356	3.89745000575203E-05
2	543	121.379317693547	1.13937377929688	1.1395263671875	5.322265625E-07	6.06486139531626E-07	2141055.25	3.90286841138732E-05
2	544	121.480025693292	1.12930297851563	1.12945556640625	5.19714355468751E-07	5.8699424698716E-07	2173223.75	3.90816530853044E-05
2	545	121.580733693038	1.11923217773438	1.11968994140625	5.0811767578125E-07	5.6893418332038E-07	2203603.75	3.91334069718141E-05
2	546	121.681441692784	1.10916137695313	1.10931396484375	4.96520996093749E-07	5.50797665255232E-07	2234173.25	3.91839967051055E-05
2	547	121.78214969253	1.09909057617188	1.09893798828125	4.85839843749999E-07	5.33907893895957E-07	2261934.75	3.92334623029456E-05
2	548	121.882857692275	1.08901977539063	1.08917236328125	4.75158691406249E-07	5.1752971330643E-07	2292228.75	3.92818510590587E-05
2	549	121.983565692021	1.07894897460938	1.0791015625	4.64477539062499E-07	5.01218437420903E-07	2323259	3.93291666114237E-05
2	550	122.084273691767	1.06887817382813	1.0687255859375	4.52880859375E-07	4.84005340695148E-07	2359838.25	3.93753580283374E-05
2	551	122.184981691513	1.05880737304688	1.0589599609375	4.41894531250001E-07	4.67948609639279E-07	2396409	3.94204143958632E-05
2	552	122.285689691258	1.04873657226563	1.048583984375	4.3060302734375E-07	4.51523447964064E-07	2435152.5	3.94643466279376E-05
2	553	122.386397691004	1.03866577148438	1.038818359375	4.2083740234375E-07	4.37173611089747E-07	2468455.5	3.95072202081792E-05
2	554	122.48710569075	1.02859497070313	1.02813720703125	4.1229248046875E-07	4.23893226297878E-07	2493708.25	3.95491733797826E-05
2	555	122.587813690496	1.01852416992188	1.0186767578125	4.05273437500001E-07	4.12842609875952E-07	2513554.25	3.95903407479636E-05
2	556	122.688521690241	1.00845336914063	1.00830078125	3.9794921875E-07	4.01252492565618E-07	2533742.5	3.96307841583621E-05
2	557	122.789229689987	0.998382568359375	0.99822998046875	3.90625E-07	3.89933575206669E-07	2555468.75	3.96704926970415E-05
2	558	122.889937689733	0.988311767578125	0.98876953125	3.826904296875E-07	3.7839262745365E-07	2583732.25	3.97094336221926E-05
2	559	122.990645689478	0.978240966796875	0.9783935546875	3.7506103515625E-07	3.66957294772874E-07	2608625	3.97475887439214E-05
2	560	123.091353689224	0.968170166015625	0.9686279296875	3.66821289062499E-07	3.55313318323169E-07	2640599.25	3.97849435103126E-05
2	561	123.19206168897	0.958099365234375	0.958251953125	3.60107421875E-07	3.45073630114712E-07	2661017	3.98215488530695E-05
2	562	123.292769688716	0.948028564453125	0.948486328125	3.5369873046875E-07	3.35478404167588E-07	2681622.25	3.98574920836836E-05
2	563	123.393477688461	0.937957763671875	0.93780517578125	3.46984863281249E-07	3.25404187151435E-07	2702726.5	3.98927732021548E-05
2	564	123.494185688207	0.927886962890625	0.92803955078125	3.4027099609375E-07	3.15784944859843E-07	2727354.25	3.99273812945466E-05
2	565	123.594893687953	0.917816162109375	0.91827392578125	3.326416015625E-07	3.05456126170611E-07	2760550.5	3.99612654291559E-05
2	566	123.695601687699	0.907745361328125	0.908203125	3.22875976562501E-07	2.93236951165454E-07	2812854.5	3.99942728108726E-05
2	567	123.796309687444	0.897674560546875	0.8978271484375	3.13720703125001E-07	2.81666956425397E-07	2861867.75	4.00263270421419E-05
2	568	123.89701768719	0.887603759765625	0.88775634765625	3.0517578125E-07	2.70921731271301E-07	2909000	4.00574899686035E-05
2	569	123.997725686936	0.877532958984375	0.87738037109375	2.972412109375E-07	2.60793598272357E-07	2951745.5	4.00878270738758E-05
2	570	124.098433686682	0.867462158203125	0.86761474609375	2.89001464843749E-07	2.50741919671782E-07	3002112	4.01173456339166E-05
2	571	124.199141686427	0.857391357421875	0.85784912109375	2.81372070312499E-07	2.41374777942838E-07	3048807.25	4.01460638386197E-05
2	572	124.299849686173	0.847320556640625	0.8477783203125	2.728271484375E-07	2.31296937158731E-07	3107382.5	4.01739707740489E-05
2	573	124.400557685919	0.837249755859375	0.83770751953125	2.6397705078125E-07	2.21135564970609E-07	3173410.25	4.02010009565856E-05
2	574	124.501265685665	0.827178955078125	0.8270263671875	2.5482177734375E-07	2.10744317996614E-07	3245509	4.02271252823994E-05
2	575	124.60197368541	0.817108154296875	0.8172607421875	2.459716796875E-07	2.01022999135603E-07	3322580.75	4.02523437514901E-05
2	576	124.702681685156	0.807037353515625	0.806884765625	2.38037109375E-07	1.92068512205879E-07	3389743.75	4.02767145715188E-05
2	577	124.803389684902	0.796966552734375	0.79742431640625	2.30712890625E-07	1.83976069934033E-07	3456349.25	4.03003177780192E-05
2	578	124.904097684647	0.786895751953125	0.78704833984375	2.24609375E-07	1.76778428340185E-07	3504076.25	4.03232443204615E-05
2	579	125.004805684393	0.776824951171875	0.77667236328125	2.1820068359375E-07	1.69470439459474E-07	3559440.5	4.03455414925702E-05
2	580	125.105513684139	0.766754150390625	0.7666015625	2.117919921875E-07	1.62360066724432E-07	3619596.75	4.036719474243E-05
2	581	125.206221683885	0.756683349609375	0.75714111328125	2.05078124999999E-07	1.55273085056251E-07	3691964.25	4.03881858801469E-05
2	582	125.30692968363	0.746612548828125	0.7464599609375	1.9805908203125E-07	1.47843181252938E-07	3768875.25	4.04084858018905E-05
2	583	125.407637683376	0.736541748046875	0.7364501953125	1.91650390625001E-07	1.41140958476171E-07	3842675.25	4.04281090595759E-05
2	584	125.508345683122	0.726470947265625	0.726348876953125	1.8585205078125E-07	1.34993427991503E-07	3908210.25	4.0447117498843E-05
2	585	125.609053682868	0.716400146484375	0.71630859375	1.80664062499999E-07	1.29411219518261E-07	3964865	4.04655729653314E-05
2	586	125.709761682613	0.706329345703125	0.70623779296875	1.7547607421875E-07	1.23927833328707E-07	4024695.75	4.04835045628715E-05
2	587	125.810469682359	0.696258544921875	0.6961669921875	1.708984375E-07	1.1897384410986E-07	4073571.5	4.05009486712515E-05
2	588	125.911177682105	0.686187744140625	0.686126708984375	1.64794921875E-07	1.13070193208387E-07	4163518.75	4.05178507207893E-05
2	589	126.011885681851	0.676116943359375	0.675994873046875	1.58081054687501E-07	1.06861982374085E-07	4276255	4.05341088480782E-05
2	590	126.112593681596	0.666046142578125	0.666015625	1.51672363281249E-07	1.01016155440448E-07	4391147	4.05497048632242E-05
2	591	126.213301681342	0.655975341796875	0.655853271484375	1.45874023437501E-07	9.56719574674025E-08	4496025	4.05646896979306E-05
2	592	126.314009681088	0.645904541015625	0.645904541015625	1.40991210937499E-07	9.10668589426677E-08	4581169	4.05791324737947E-05
2	593	126.414717680834	0.635833740234375	0.6357421875	1.36718750000001E-07	8.69178791162994E-08	4650000	4.05931168643292E-05
2	594	126.515425680579	0.625762939453125	0.625762939453125	1.324462890625E-07	8.28799784358125E-08	4724654.5	4.06066719733644E-05
2	595	126.616133680325	0.615692138671875	0.615631103515625	1.29089355468751E-07	7.94714267726704E-08	4769030.5	4.06198414566461E-05
2	596	126.716841680071	0.605621337890625	0.605560302734375	1.251220703125E-07	7.57689591068811E-08	4839756	4.06326398660894E-05
2	597	126.817549679816	0.595550537109375	0.595550537109375	1.21459960937501E-07	7.23355455534147E-08	4903266.5	4.06450562877581E-05
2	598	126.918257679562	0.585479736328125	0.58544921875	1.18103027343749E-07	6.91433257316021E-08	4957106	4.06571198254824E-05
2	599	127.018965679308	0.575408935546875	0.575347900390625	1.15966796875E-07	6.67212489702251E-08	4961316	4.06689068768173E-05
2	600	127.119673679054	0.565338134765625	0.565277099609375	1.15356445312501E-07	6.52083542718174E-08	4900264.5	4.06805556849577E-05
2	601	127.220381678799	0.555267333984375	0.55523681640625	1.1474609375E-07	6.37112549384256E-08	4838830	4.06921426474582E-05
2	602	127.321089678545	0.545196533203125	0.545166015625	1.15356445312501E-07	6.28884109232786E-08	4725926	4.070372597198E-05
2	603	127.421797678291	0.535125732421875	0.535125732421875	1.13830566406251E-07	6.09136634466267E-08	4701072.5	4.07152692787349E-05
2	604	127.522505678037	0.525054931640625	0.525054931640625	1.1322021484375E-07	5.94468296810646E-08	4637466.5	4.07266998081468E-05
2	605	127.623213677782	0.514984130859375	0.514984130859375	1.1260986328125E-07	5.79922918575448E-08	4573171	4.07380721298978E-05
2	606	127.723921677528	0.504913330078125	0.504913330078125	1.10473632812499E-07	5.57796084876827E-08	4570442	4.07493062084541E-05
2	607	127.824629677274	0.494842529296875	0.494781494140625	1.0955810546875E-07	5.42073195219928E-08	4516156	4.07603838539217E-05
2	608	127.92533767702	0.484771728515625	0.484771728515625	1.08642578125E-07	5.26668486600101E-08	4462079	4.07713705499191E-05
2	609	128.026045676765	0.474700927734375	0.47467041015625	1.08642578125E-07	5.15694154046287E-08	4369101.5	4.07823135901708E-05
2	610	128.126753676511	0.464630126953125	0.46466064453125	1.0650634765625E-07	4.94893050984047E-08	4362751	4.07931474910583E-05
2	611	128.227461676257	0.454559326171875	0.454498291015625	1.04675292968751E-07	4.75747405914717E-08	4341983	4.08037813031115E-05
2	612	128.328169676003	0.444488525390625	0.444488525390625	1.0101318359375E-07	4.48991990253944E-08	4400302.5	4.08141386287753E-05
2	613	128.428877675748	0.434417724609375	0.434417724609375	9.70458984375006E-08	4.21584580578838E-08	4476415	4.08241103286855E-05
2	614	128.529585675494	0.424346923828125	0.42431640625	9.27734375000003E-08	3.93652896946151E-08	4573684.5	4.08336709369905E-05
2	615	128.63029367524	0.414276123046875	0.41424560546875	8.94165039062506E-08	3.7040393863208E-08	4632764.5	4.08428422815632E-05
2	616	128.731001674985	0.404205322265625	0.4041748046875	8.66699218750003E-08	3.50297995055371E-08	4663380.5	4.08517116738949E-05
2	617	128.831709674731	0.394134521484375	0.39410400390625	8.33129882812506E-08	3.28339808675082E-08	4730403	4.08602682000492E-05
2	618	128.932417674477	0.384063720703125	0.384063720703125	8.11767578124997E-08	3.11770484984208E-08	4731203	4.08685518777929E-05
2	619	129.033125674223	0.373992919921875	0.37396240234375	7.81249999999997E-08	2.92158119918895E-08	4786719	4.08765736210626E-05
2	620	129.133833673968	0.363922119140625	0.363922119140625	7.50732421874997E-08	2.73208122791857E-08	4847561	4.08842861361336E-05
2	621	129.234541673714	0.353851318359375	0.3538818359375	7.23266601562494E-08	2.55950904914926E-08	4892827	4.08917112508789E-05
2	622	129.33524967346	0.343780517578125	0.34375	7.01904296875E-08	2.41279600743383E-08	4897391	4.08988853450865E-05
2	623	129.435957673206	0.333709716796875	0.33367919921875	6.89697265624997E-08	2.30137633394634E-08	4838053	4.09058920922689E-05
2	624	129.536665672951	0.323638916015625	0.3236083984375	6.89697265624997E-08	2.23191829462621E-08	4692035.5	4.09128406317905E-05
2	625	129.637373672697	0.313568115234375	0.313568115234375	6.866455078125E-08	2.15310134166202E-08	4566667	4.0919770981418E-05
2	626	129.738081672443	0.303497314453125	0.303466796875	6.74438476562497E-08	2.04669667880353E-08	4499548	4.09266249334905E-05
2	627	129.838789672189	0.293426513671875	0.29339599609375	6.62231445312494E-08	1.94296045918918E-08	4430415	4.09333551942836E-05
2	628	129.939497671934	0.283355712890625	0.28338623046875	6.46972656249994E-08	1.83343136228586E-08	4380189	4.09399472118821E-05
2	629	130.04020567168	0.273284912109375	0.27325439453125	6.22558593750003E-08	1.70116862818759E-08	4389216	4.09463391406462E-05
2	630	130.140913671426	0.263214111328125	0.26312255859375	5.950927734375E-08	1.56582320443022E-08	4421538.5	4.09524691349361E-05
2	631	130.241621671172	0.253143310546875	0.253143310546875	5.70678710937494E-08	1.44463490059366E-08	4435829	4.09583408327308E-05
2	632	130.342329670917	0.243072509765625	0.243072509765625	5.46264648437503E-08	1.32781918793512E-08	4449720.5	4.09639651479665E-05
2	633	130.443037670663	0.233001708984375	0.233001708984375	5.09643554687494E-08	1.1874781158383E-08	4571856.5	4.09692802350037E-05
2	634	130.543745670409	0.222930908203125	0.222991943359375	4.730224609375E-08	1.05480193468566E-08	4714194	4.09742278861813E-05
2	635	130.644453670154	0.212860107421875	0.21282958984375	4.05883789062506E-08	8.63840821097028E-09	5243609	4.09786553063896E-05
2	636	130.7451616699	0.202789306640625	0.202789306640625	3.32641601562503E-08	6.74561562163944E-09	6096330.5	4.09823733207304E-05
2	637	130.845869669646	0.192718505859375	0.192779541015625	2.593994140625E-08	5.00068964015554E-09	7431765	4.09853564633522E-05
2	638	130.946577669392	0.182647705078125	0.182647705078125	1.70898437499997E-08	3.12142045544306E-09	10687501	4.09875210607424E-05
2	639	131.047285669137	0.172576904296875	0.172576904296875	8.23974609374945E-09	1.42198985919606E-09	20944446	4.09887979913037E-05
2	640	131.147993668883	0.162506103515625	0.162567138671875	-2.13623046874945E-09	-3.47280842971642E-10	-76100008	4.09891035815235E-05
2	641	131.248701668629	0.152435302734375	0.15252685546875	-1.43432617187494E-08	-2.18773266169592E-09	-10634043	4.09882741223555E-05
2	642	131.349409668375	0.142364501953125	0.142425537109375	-2.99072265625006E-08	-4.25955271055045E-09	-4762245	4.09860476793256E-05
2	643	131.45011766812	0.132293701171875	0.13238525390625	-4.94384765624994E-08	-6.54492504637005E-09	-2677777.75	4.09820495406166E-05
2	644	131.550825667866	0.122222900390625	0.122283935546875	-7.50732421874997E-08	-9.18025122587096E-09	-1628861.875	4.0975781303132E-05
2	645	131.651533667612	0.112152099609375	0.1121826171875	-1.07421874999999E-07	-1.20508660828023E-08	-1044318.25	4.09665917686652E-05
2	646	131.752241667358	0.102081298828125	0.102142333984375	-1.50451660156251E-07	-1.53674832858997E-08	-678904.6875	4.09536078223027E-05
2	647	131.852949667103	0.092010498046875	0.092071533203125	-2.0721435546875E-07	-1.90785431897211E-08	-444329.90625	4.09355961892288E-05
2	648	131.953657666849	0.081939697265625	0.081939697265625	-2.84729003906251E-07	-2.33306085561935E-08	-287781.34375	4.09108251915313E-05
2	649	132.054365666595	0.071868896484375	0.071929931640625	-3.88183593749999E-07	-2.79220184751239E-08	-185298.734375	4.08769410569221E-05
2	650	132.155073666341	0.061798095703125	0.061859130859375	-5.218505859375E-07	-3.2281221251651E-08	-118538.015625	4.0831117075868E-05
2	651	132.255781666086	0.051727294921875	0.051788330078125	-6.87561035156251E-07	-3.56076341745393E-08	-75321.796875	4.0770220948616E-05
2	652	132.356489665832	0.041656494140625	0.041729736328125	-8.819580078125E-07	-3.68038755027555E-08	-47314.87890625	4.06911894970108E-05
2	653	132.457197665578	0.031585693359375	0.031634521484375	-1.09619140625E-06	-3.46774875481515E-08	-28858.576171875	4.05915816372726E-05
2	654	132.557905665323	0.021514892578125	0.0216094970703125	-1.31103515625E-06	-2.83308096982182E-08	-16482.7734375	4.04703678213991E-05
2	655	132.658613665069	0.011444091796875	0.011541748046875	-1.507568359375E-06	-1.73999747943299E-08	-7655.87109375	4.03284393541981E-05
2	656	132.759321664815	0.001373291015625	0.00144348144531251	-1.666259765625E-06	-2.40521513816816E-09	-866.300354003906	4.01686229452025E-05
2	657	132.860029664561	-0.008697509765625	-0.00860595703125	-1.77337646484375E-06	1.52616017601304E-08	4852.865234375	3.99954260501545E-05
2	658	132.960737664306	-0.018768310546875	-0.0186614990234375	-1.82708740234375E-06	3.40961889833125E-08	10213.796875	3.98141273763031E-05
2	659	133.061445664052	-0.028839111328125	-0.0287322998046875	-1.83441162109375E-06	5.27068628741745E-08	15662.951171875	3.96297546103597E-05
2	660	133.162153663798	-0.038909912109375	-0.03875732421875	-1.806640625E-06	7.00205546877442E-08	21452.703125	3.94464150303975E-05
2	661	133.262861663544	-0.048980712890625	-0.04884033203125	-1.75537109375E-06	8.57329069958723E-08	27823.3671875	3.92670517612714E-05
2	662	133.363569663289	-0.059051513671875	-0.058990478515625	-1.6937255859375E-06	9.99136773316422E-08	34828.83203125	3.90933782909997E-05
2	663	133.464277663035	-0.069122314453125	-0.069122314453125	-1.6278076171875E-06	1.12517831496461E-07	42463.44140625	3.89261258533224E-05
2	664	133.564985662781	-0.079193115234375	-0.0791015625	-1.56494140625E-06	1.23789305916944E-07	50546.0234375	3.87653562938794E-05
2	665	133.665693662527	-0.089263916015625	-0.08917236328125	-1.507568359375E-06	1.34433435050596E-07	59149.80078125	3.86106439691503E-05
2	666	133.766401662272	-0.099334716796875	-0.099273681640625	-1.45538330078125E-06	1.44481262509544E-07	68211.3671875	3.84614468202926E-05
2	667	133.867109662018	-0.109405517578125	-0.10931396484375	-1.41021728515625E-06	1.54156438725295E-07	77515.6953125	3.83171536668669E-05
2	668	133.967817661764	-0.119476318359375	-0.119415283203125	-1.37054443359375E-06	1.63663941066261E-07	87129.8203125	3.81771315005608E-05
2	669	134.06852566151	-0.129547119140625	-0.12945556640625	-1.33453369140625E-06	1.72762810279892E-07	97004.3515625	3.80409182980657E-05
2	670	134.169233661255	-0.139617919921875	-0.139495849609375	-1.302490234375E-06	1.81691973466513E-07	107099.34375	3.79081357095856E-05
2	671	134.269941661001	-0.149688720703125	-0.149566650390625	-1.2744140625E-06	1.90609824812782E-07	117361.1171875	3.77783762814943E-05
2	672	134.370649660747	-0.159759521484375	-0.159576416015625	-1.2506103515625E-06	1.99567921299604E-07	127598.828125	3.76512325601652E-05
2	673	134.471357660492	-0.169830322265625	-0.169677734375	-1.2310791015625E-06	2.08886703489952E-07	137828.46875	3.75262679881416E-05
2	674	134.572065660238	-0.179901123046875	-0.17974853515625	-1.21551513671875E-06	2.18487059555628E-07	147878.484375	3.74030714738183E-05
2	675	134.672773659984	-0.189971923828125	-0.1898193359375	-1.20330810546875E-06	2.28411138891715E-07	157747.90625	3.72812755813356E-05
2	676	134.77348165973	-0.200042724609375	-0.199920654296875	-1.19476318359375E-06	2.38857836620809E-07	167330.78125	3.71605237887707E-05
2	677	134.874189659475	-0.189971923828125	-0.189788818359375	-1.03118896484375E-06	1.95708139472117E-07	184048.53125	3.70484376617242E-05
