Potential - Start -0.2 V, Upper Vertex 1.5 V, Lower Vertex -0.2 V, Stop -0.19 V; Scan - # end cross 5, Rate 0.1 Vps, Step 0.01 V 
Scan	Index	Time (s)	Potential applied (V)	WE(1).Potential (V)	WE(1).Current (A)	WE(1).Power (W)	WE(1).Resistance (Ω)	WE(1).Charge (C)
1	1	66.3975788323622	-0.189971923828125	-0.189788818359375	-2.01416015625E-07	3.8226506404726E-08	942272.75	0
1	2	66.498286832108	-0.179901123046875	-0.179718017578125	-1.6815185546875E-07	3.02199190116426E-08	1068784	-1.86092208309674E-08
1	3	66.5989948318537	-0.169830322265625	-0.169647216796875	-1.416015625E-07	2.40223112513149E-08	1198060.375	-3.42065433756034E-08
1	4	66.6997028315994	-0.159759521484375	-0.15966796875	-1.190185546875E-07	1.90034494806923E-08	1341538.5	-4.73298094050278E-08
1	5	66.8004108313452	-0.149688720703125	-0.149566650390625	-9.82666015624995E-08	1.46974059589411E-08	1522049.75	-5.82709844820783E-08
1	6	66.9011188310909	-0.139617919921875	-0.139495849609375	-7.81249999999997E-08	1.08981126345498E-08	1785546.875	-6.71530102636098E-08
1	7	67.0018268308366	-0.129547119140625	-0.129425048828125	-5.88989257812506E-08	7.62299556811286E-09	2197409.5	-7.40527070774988E-08
1	8	67.1025348305824	-0.119476318359375	-0.119354248046875	-3.96728515625E-08	4.73512340448679E-09	3008461.5	-7.90161962527236E-08
1	9	67.2032428303281	-0.109405517578125	-0.10931396484375	-1.8310546875E-08	2.00159844254699E-09	5970000.5	-8.19358874082354E-08
1	10	67.3039508300739	-0.099334716796875	-0.09930419921875	5.18798828124945E-09	-5.15189002570082E-10	-19141176	-8.25966637307829E-08
1	11	67.4046588298196	-0.089263916015625	-0.089141845703125	3.29589843750006E-08	-2.93802449036207E-09	-2704629.75	-8.06758109206385E-08
1	12	67.5053668295653	-0.079193115234375	-0.0791015625	6.62231445312494E-08	-5.23835419485863E-09	-1194470	-7.5681590772092E-08
1	13	67.6060748293111	-0.069122314453125	-0.069091796875	1.0986328125E-07	-7.59065166278106E-09	-628888.875	-6.68149411353625E-08
1	14	67.7067828290568	-0.059051513671875	-0.058990478515625	1.666259765625E-07	-9.82934533766411E-09	-354029.3125	-5.28925987453022E-08
1	15	67.8074908288025	-0.048980712890625	-0.0488372802734375	2.42919921875E-07	-1.18635483659091E-08	-201042.71875	-3.22703250787981E-08
1	16	67.9081988285483	-0.038909912109375	-0.0387481689453125	3.45458984374999E-07	-1.33859021644867E-08	-112164.3125	-2.64309352182579E-09
1	17	68.008906828294	-0.028839111328125	-0.0287078857421875	4.803466796875E-07	-1.37897373519991E-08	-59764.93359375	3.89395253819202E-08
1	18	68.1096148280398	-0.018768310546875	-0.0186798095703125	6.561279296875E-07	-1.22563434956646E-08	-28469.767578125	9.61655644005077E-08
1	19	68.2103228277855	-0.008697509765625	-0.008624267578125	8.7310791015625E-07	-7.52991624608512E-09	-9877.666015625	1.73168700712267E-07
1	20	68.3110308275312	0.001373291015625	0.0014495849609375	1.12823486328125E-06	1.63547231313288E-09	1284.82556152344	2.73944323225805E-07
1	21	68.411738827277	0.011444091796875	0.011541748046875	1.4093017578125E-06	1.62658064795096E-08	8189.69287109375	4.0171943282985E-07
1	22	68.5124468270227	0.021514892578125	0.02159423828125	1.6912841796875E-06	3.65219925413385E-08	12767.953125	5.57846362880809E-07
1	23	68.6131548267684	0.031585693359375	0.031640625	1.94732666015625E-06	6.16146351717362E-08	16248.23828125	7.41064923204249E-07
1	24	68.7138628265142	0.041656494140625	0.04173583984375	2.152099609375E-06	8.98196788057248E-08	19393.080078125	9.47487421854021E-07
1	25	68.8145708262599	0.051727294921875	0.051727294921875	2.2882080078125E-06	1.18362805778816E-07	22606.029296875	1.17107470032352E-06
1	26	68.9152788260056	0.061798095703125	0.06182861328125	2.35382080078125E-06	1.45533476825221E-07	26267.341796875	1.40481938615267E-06
1	27	69.0159868257514	0.071868896484375	0.071868896484375	2.35809326171875E-06	1.69473565847511E-07	30477.544921875	1.64208313435665E-06
1	28	69.1166948254971	0.081939697265625	0.08203125	2.31781005859375E-06	1.90132851685121E-07	35391.70703125	1.87753357749898E-06
1	29	69.2174028252429	0.092010498046875	0.092071533203125	2.2503662109375E-06	2.07194659651577E-07	40914.0234375	2.10755956686626E-06
1	30	69.3181108249886	0.102081298828125	0.102142333984375	2.1685791015625E-06	2.21503739794571E-07	47101.0390625	2.33007108363381E-06
1	31	69.4188188247343	0.112152099609375	0.112213134765625	2.08343505859375E-06	2.33788767900478E-07	53859.67578125	2.54417705036758E-06
1	32	69.5195268244801	0.122222900390625	0.12225341796875	1.99981689453125E-06	2.44484425593328E-07	61132.3125	2.74978515335533E-06
1	33	69.6202348242258	0.132293701171875	0.13238525390625	1.92138671875E-06	2.54363271778857E-07	68900.890625	2.94723326987878E-06
1	34	69.7209428239715	0.142364501953125	0.142364501953125	1.84967041015625E-06	2.63327393668078E-07	76967.5	3.13712121169374E-06
1	35	69.8216508237173	0.152435302734375	0.152496337890625	1.78466796875E-06	2.72155318725709E-07	85448.015625	3.32012450598995E-06
1	36	69.922358823463	0.162506103515625	0.162567138671875	1.727294921875E-06	2.80801373264694E-07	94116.609375	3.49696597368165E-06
1	37	70.0230668232088	0.172576904296875	0.172607421875	1.6754150390625E-06	2.89189046043248E-07	103023.6796875	3.66830613529601E-06
1	38	70.1237748229545	0.182647705078125	0.1826171875	1.629638671875E-06	2.97600024623534E-07	112059.9296875	3.83472888643155E-06
1	39	70.2244828227002	0.192718505859375	0.1927490234375	1.588134765625E-06	3.06111417103239E-07	121368.1796875	3.9967562770471E-06
1	40	70.325190822446	0.202789306640625	0.2027587890625	1.55059814453125E-06	3.1439739700545E-07	130761.6640625	4.15480417359504E-06
1	41	70.4258988221917	0.212860107421875	0.21295166015625	1.51702880859375E-06	3.23053797046668E-07	140374.171875	4.3092713895021E-06
1	42	70.5266068219374	0.222930908203125	0.22296142578125	1.48681640625E-06	3.31502690187335E-07	149958.953125	4.4605271796172E-06
1	43	70.6273148216832	0.233001708984375	0.233001708984375	1.4599609375E-06	3.40173386348397E-07	159594.484375	4.6089089664747E-06
1	44	70.7280228214289	0.243072509765625	0.24310302734375	1.43524169921875E-06	3.48911584069356E-07	169381.25	4.75469414595864E-06
1	45	70.8287308211746	0.253143310546875	0.25311279296875	1.41265869140625E-06	3.57561987129884E-07	179174.765625	4.89809735881863E-06
1	46	70.9294388209204	0.263214111328125	0.26318359375	1.39190673828125E-06	3.66327014944545E-07	189081.34375	5.03931823914172E-06
1	47	71.0301468206661	0.273284912109375	0.27325439453125	1.37298583984375E-06	3.75174408873136E-07	199022	5.17854186909972E-06
1	48	71.1308548204119	0.283355712890625	0.283447265625	1.35528564453125E-06	3.84152002652627E-07	209142.09375	5.31592104380252E-06
1	49	71.2315628201576	0.293426513671875	0.29339599609375	1.33941650390625E-06	3.92979444541197E-07	219047.625	5.45161037734943E-06
1	50	71.3322708199033	0.303497314453125	0.30340576171875	1.32476806640625E-06	4.01942259031784E-07	229025.578125	5.58576266485034E-06
1	51	71.4329788196491	0.313568115234375	0.3135986328125	1.31134033203125E-06	4.1123450955638E-07	239143.59375	5.71850114283734E-06
1	52	71.5336868193948	0.323638916015625	0.323577880859375	1.29913330078125E-06	4.20370781739621E-07	249072.125	5.84994904784253E-06
1	53	71.6343948191405	0.333709716796875	0.333709716796875	1.287841796875E-06	4.29765321996456E-07	259123.234375	5.98021370024071E-06
1	54	71.7351028188863	0.343780517578125	0.343841552734375	1.27777099609375E-06	4.39350742453826E-07	269094.84375	6.1094024204067E-06
1	55	71.835810818632	0.353851318359375	0.3538818359375	1.268310546875E-06	4.48832054189552E-07	279018.3125	6.23760752205271E-06
1	56	71.9365188183777	0.363922119140625	0.36395263671875	1.25946044921875E-06	4.58383937029794E-07	288975.0625	6.36489130556583E-06
1	57	72.0372268181235	0.373992919921875	0.3740234375	1.25213623046875E-06	4.68328266833851E-07	298708.28125	6.49136018182617E-06
1	58	72.1379348178692	0.384063720703125	0.384033203125	1.2451171875E-06	4.78166327866347E-07	308431.375	6.61710691929329E-06
1	59	72.238642817615	0.394134521484375	0.394134521484375	1.23931884765625E-06	4.88458340441866E-07	318025.125	6.74220791552216E-06
1	60	72.3393508173607	0.404205322265625	0.404266357421875	1.23382568359375E-06	4.98794179293327E-07	327652.75	6.86674093230977E-06
1	61	72.4400588171064	0.414276123046875	0.414276123046875	1.22894287109375E-06	5.09121719005634E-07	337099.5625	6.99075098964386E-06
1	62	72.5407668168522	0.424346923828125	0.42431640625	1.22467041015625E-06	5.19647755936603E-07	346473.96875	7.1143003879115E-06
1	63	72.6414748165979	0.434417724609375	0.434356689453125	1.22100830078125E-06	5.30353077010659E-07	355736.09375	7.23745006325771E-06
1	64	72.7421828163436	0.444488525390625	0.444549560546875	1.2176513671875E-06	5.41306349077786E-07	365087.75	7.36024639991228E-06
1	65	72.8428908160894	0.454559326171875	0.454559326171875	1.21490478515625E-06	5.5224626294148E-07	374152.25	7.48273532735766E-06
1	66	72.9435988158351	0.464630126953125	0.464630126953125	1.21246337890625E-06	5.63346986837132E-07	383211.6875	7.60496277507627E-06
1	67	73.0443068155809	0.474700927734375	0.4747314453125	1.21002197265625E-06	5.74435489397729E-07	392332.90625	7.72694420447806E-06
1	68	73.1450148153266	0.484771728515625	0.484771728515625	1.20880126953125E-06	5.85992665946833E-07	401035.09375	7.84874191595009E-06
1	69	73.2457228150723	0.494842529296875	0.494781494140625	1.207275390625E-06	5.97337475483073E-07	409833.1875	7.97040138422744E-06
1	70	73.3464308148181	0.504913330078125	0.50494384765625	1.207275390625E-06	6.09606217949477E-07	418250.78125	8.09198354545515E-06
1	71	73.4471388145638	0.514984130859375	0.514984130859375	1.207275390625E-06	6.21727622274193E-07	426567.25	8.21356570668286E-06
1	72	73.5478468143095	0.525054931640625	0.525054931640625	1.2078857421875E-06	6.34206344329868E-07	434689.25	8.33517879073042E-06
1	73	73.6485548140553	0.535125732421875	0.53509521484375	1.20819091796875E-06	6.4649714204279E-07	442889.65625	8.45683825900778E-06
1	74	73.749262813801	0.545196533203125	0.545166015625	1.20941162109375E-06	6.59330112284806E-07	450769.625	8.57857412484009E-06
1	75	73.8499708135467	0.555267333984375	0.55523681640625	1.2109375E-06	6.72357089115394E-07	458518.125	8.70044823386706E-06
1	76	73.9506788132925	0.565338134765625	0.565338134765625	1.2127685546875E-06	6.85624286234088E-07	466155	8.82249150890857E-06
1	77	74.0513868130382	0.575408935546875	0.57537841796875	1.2152099609375E-06	6.99205600085406E-07	473480.65625	8.94474942469969E-06
1	78	74.152094812784	0.585479736328125	0.58544921875	1.21734619140625E-06	7.12694372850819E-07	480922.5625	9.06723835214507E-06
1	79	74.2528028125297	0.595550537109375	0.595550537109375	1.2200927734375E-06	7.2662686534386E-07	488119.09375	9.18997375265462E-06
1	80	74.3535108122754	0.605621337890625	0.6055908203125	1.2225341796875E-06	7.40355460493447E-07	495356.96875	9.31296926864889E-06
1	81	74.4542188120212	0.615692138671875	0.61566162109375	1.2255859375E-06	7.54546249481791E-07	502340.625	9.43624218052719E-06
1	82	74.5549268117669	0.625762939453125	0.625762939453125	1.2286376953125E-06	7.68835889175534E-07	509314.46875	9.55982250161469E-06
1	83	74.6556348115126	0.635833740234375	0.63580322265625	1.231689453125E-06	7.83112113822426E-07	516204.15625	9.68370932241669E-06
1	84	74.7563428112584	0.645904541015625	0.645904541015625	1.23443603515625E-06	7.97327800228231E-07	523238.5625	9.80788900051266E-06
1	85	74.8570508110041	0.655975341796875	0.65594482421875	1.23687744140625E-06	8.11323332072789E-07	530323.25	9.93232970358804E-06
1	86	74.9577588107499	0.666046142578125	0.66595458984375	1.2396240234375E-06	8.25533277293289E-07	537223.0625	1.00570314316428E-05
1	87	75.0584668104956	0.676116943359375	0.676055908203125	1.24237060546875E-06	8.39911933780968E-07	544166.0625	1.0182009646087E-05
1	88	75.1591748102413	0.686187744140625	0.686126708984375	1.24481201171875E-06	8.54098743729992E-07	551189	1.03072488855105E-05
1	89	75.2598828099871	0.696258544921875	0.6961669921875	1.24786376953125E-06	8.68721599545097E-07	557887	1.04327655208181E-05
1	90	75.3605908097328	0.706329345703125	0.706329345703125	1.25E-06	8.82911649568996E-07	565063.5	1.05585422716103E-05
1	91	75.4612988094785	0.716400146484375	0.71624755859375	1.25244140625E-06	8.97058100690629E-07	571881.125	1.06845509435516E-05
1	92	75.5620068092243	0.726470947265625	0.72637939453125	1.25457763671875E-06	9.11299309791502E-07	578983.25	1.08107888081577E-05
1	93	75.66271480897	0.736541748046875	0.73638916015625	1.25732421875E-06	9.25879930946394E-07	585679.625	1.09372731458279E-05
1	94	75.7634228087157	0.746612548828125	0.74652099609375	1.25946044921875E-06	9.40213624289754E-07	592730.8125	1.10640030470677E-05
1	95	75.8641308084615	0.756683349609375	0.7568359375	1.2628173828125E-06	9.557455769027E-07	599323.375	1.11910103441915E-05
1	96	75.9648388082072	0.766754150390625	0.7672119140625	1.26556396484375E-06	9.70955738921475E-07	606221.375	1.13183241410297E-05
1	97	76.065546807953	0.776824951171875	0.77667236328125	1.26861572265625E-06	9.85298811428947E-07	612220.375	1.1445930795162E-05
1	98	76.1662548076987	0.786895751953125	0.78704833984375	1.27288818359375E-06	1.00182455753384E-06	618316.9375	1.15739048851538E-05
1	99	76.2669628074444	0.796966552734375	0.79742431640625	1.27716064453125E-06	1.01843897937215E-06	624372.75	1.17023100756342E-05
1	100	76.3676708071902	0.807037353515625	0.80657958984375	1.28082275390625E-06	1.0330854820495E-06	629735.5	1.18311154437833E-05
1	101	76.4683788069359	0.817108154296875	0.8172607421875	1.285400390625E-06	1.05050719412247E-06	635802.5	1.19603346320218E-05
1	102	76.5690868066816	0.827178955078125	0.82763671875	1.2908935546875E-06	1.06839092950395E-06	641134.75	1.20900613183039E-05
1	103	76.6697948064274	0.837249755859375	0.83740234375	1.2957763671875E-06	1.08508606899704E-06	646255.3125	1.22203109640395E-05
1	104	76.7705028061731	0.847320556640625	0.84716796875	1.30157470703125E-06	1.1026523907276E-06	650879.25	1.23510981211439E-05
1	105	76.8712108059188	0.857391357421875	0.85784912109375	1.3067626953125E-06	1.12100519800151E-06	656468.9375	1.24824382510269E-05
1	106	76.9719188056646	0.867462158203125	0.8673095703125	1.3128662109375E-06	1.13866144602071E-06	660623	1.26143468150985E-05
1	107	77.0726268054103	0.877532958984375	0.8782958984375	1.318359375E-06	1.15790953714168E-06	666203.75	1.27468392747687E-05
1	108	77.1733348051561	0.887603759765625	0.88775634765625	1.32476806640625E-06	1.17607123684138E-06	670122.125	1.28799310914474E-05
1	109	77.2740428049018	0.897674560546875	0.89752197265625	1.33026123046875E-06	1.19393860131822E-06	674696.0625	1.30136231746292E-05
1	110	77.3747508046475	0.907745361328125	0.9075927734375	1.3360595703125E-06	1.21259802199347E-06	679305.625	1.31478827825049E-05
1	111	77.4754588043933	0.917816162109375	0.91827392578125	1.34246826171875E-06	1.23275356145314E-06	684019.125	1.3282757208799E-05
1	112	77.576166804139	0.927886962890625	0.9283447265625	1.34796142578125E-06	1.25137285067467E-06	688702.75	1.34182309921016E-05
1	113	77.6768748038847	0.937957763671875	0.93780517578125	1.35406494140625E-06	1.26984912185435E-06	692585.0625	1.35542886710027E-05
1	114	77.7775828036305	0.948028564453125	0.9478759765625	1.36016845703125E-06	1.28927092646336E-06	696881.3125	1.36909611683222E-05
1	115	77.8782908033762	0.958099365234375	0.95794677734375	1.365966796875E-06	1.308523451371E-06	701295.8125	1.38282330226502E-05
1	116	77.978998803122	0.968170166015625	0.968017578125	1.3714599609375E-06	1.32759726056975E-06	705830	1.39660733111668E-05
1	117	78.0797068028677	0.978240966796875	0.97808837890625	1.37786865234375E-06	1.34767731196916E-06	709856	1.41045138661866E-05
1	118	78.1804148026134	0.988311767578125	0.98876953125	1.38336181640625E-06	1.36782603021857E-06	714758.4375	1.42435519592254E-05
1	119	78.2811228023592	0.998382568359375	0.99853515625	1.38946533203125E-06	1.38742996114161E-06	718647.0625	1.43831757668522E-05
1	120	78.3818308021049	1.00845336914063	1.00860595703125	1.39617919921875E-06	1.40819463467778E-06	722404.375	1.45234434967279E-05
1	121	78.4825388018506	1.01852416992188	1.01806640625	1.40228271484375E-06	1.42761689403414E-06	726006.5625	1.46643578773364E-05
1	122	78.5832468015964	1.02859497070313	1.02813720703125	1.40869140625E-06	1.44832802106976E-06	729852.75	1.48059016282787E-05
1	123	78.6839548013421	1.03866577148438	1.03851318359375	1.41510009765625E-06	1.46960007896269E-06	733879.6875	1.49480902109644E-05
1	124	78.7846628010878	1.04873657226563	1.048583984375	1.422119140625E-06	1.49121137837938E-06	737339.0625	1.50909554577083E-05
1	125	78.8853708008336	1.05880737304688	1.058349609375	1.42913818359375E-06	1.51252777413902E-06	740550.9375	1.52345282913302E-05
1	126	78.9860788005793	1.06887817382813	1.06903076171875	1.43646240234375E-06	1.5356224594143E-06	744210.75	1.53788223542506E-05
1	127	79.0867868003251	1.07894897460938	1.07879638671875	1.4434814453125E-06	1.55722250383405E-06	747357.3125	1.55238394654589E-05
1	128	79.1874948000708	1.08901977539063	1.08917236328125	1.45111083984375E-06	1.58050977461244E-06	750578.3125	1.56695932673756E-05
1	129	79.2882027998165	1.09909057617188	1.09893798828125	1.4593505859375E-06	1.60373576818529E-06	753032.25	1.58161474246299E-05
1	130	79.3889107995623	1.10916137695313	1.10931396484375	1.46697998046875E-06	1.62734136210929E-06	756188.9375	1.59635001182323E-05
1	131	79.489618799308	1.11923217773438	1.11907958984375	1.47552490234375E-06	1.65122980888555E-06	758428.125	1.61116659000982E-05
1	132	79.5903267990537	1.12930297851563	1.12945556640625	1.48468017578125E-06	1.67688028795965E-06	760740	1.62607248057611E-05
1	133	79.6910347987995	1.13937377929688	1.1395263671875	1.49322509765625E-06	1.70156943113398E-06	763131	1.64106731972424E-05
1	134	79.7917427985452	1.14944458007813	1.148681640625	1.50238037109375E-06	1.72575664691976E-06	764574.5	1.65615147125209E-05
1	135	79.892450798291	1.15951538085938	1.15966796875	1.5118408203125E-06	1.75323327766819E-06	767056.9375	1.67132930073421E-05
1	136	79.9931587980367	1.16958618164063	1.16943359375	1.52130126953125E-06	1.77906076714862E-06	768706.125	1.68660226336215E-05
1	137	80.0938667977824	1.17965698242188	1.17950439453125	1.53167724609375E-06	1.80661993454123E-06	770073.75	1.70197527040727E-05
1	138	80.1945747975282	1.18972778320313	1.1895751953125	1.54266357421875E-06	1.83511428986094E-06	771117.75	1.71745577972615E-05
1	139	80.2952827972739	1.19979858398438	1.1993408203125	1.55364990234375E-06	1.86335569196672E-06	771950.5	1.7330470654997E-05
1	140	80.3959907970196	1.20986938476563	1.20941162109375	1.56524658203125E-06	1.89302738817787E-06	772665.25	1.74875185621204E-05
1	141	80.4966987967654	1.21994018554688	1.21978759765625	1.5771484375E-06	1.92378615793132E-06	773413.3125	1.76457506313454E-05
1	142	80.5974067965111	1.23001098632813	1.2298583984375	1.58905029296875E-06	1.95430675375974E-06	773958.125	1.78051814145874E-05
1	143	80.6981147962568	1.24008178710938	1.24053955078125	1.60125732421875E-06	1.98642305804242E-06	774728.4375	1.7965827282751E-05
1	144	80.7988227960026	1.25015258789063	1.25030517578125	1.61346435546875E-06	2.0173226857878E-06	774919.625	1.81277009687619E-05
1	145	80.8995307957483	1.26022338867188	1.26007080078125	1.62567138671875E-06	2.04846082851873E-06	775108	1.82908042916097E-05
1	146	81.0002387954941	1.27029418945313	1.27044677734375	1.63818359375E-06	2.08122492040275E-06	775521.625	1.84551518032094E-05
1	147	81.1009467952398	1.28036499023438	1.28021240234375	1.65008544921875E-06	2.11245992431941E-06	775846.125	1.86207307706354E-05
1	148	81.2016547949855	1.29043579101563	1.29058837890625	1.66229248046875E-06	2.14533520193072E-06	776390.6875	1.87875211850042E-05
1	149	81.3023627947313	1.30050659179688	1.30035400390625	1.67449951171875E-06	2.17744218389271E-06	776562.8125	1.89555430551991E-05
1	150	81.403070794477	1.31057739257813	1.31072998046875	1.68731689453125E-06	2.2116166746855E-06	776813.1875	1.91248236660613E-05
1	151	81.5037787942227	1.32064819335938	1.32080078125	1.69952392578125E-06	2.24473251364543E-06	777159.3125	1.92953648365801E-05
1	152	81.6044867939685	1.33071899414063	1.33148193359375	1.7138671875E-06	2.2819831428933E-06	776887.5	1.94672411453212E-05
1	153	81.7051947937142	1.34078979492188	1.34063720703125	1.72882080078125E-06	2.31772150982579E-06	775463.375	1.96405944734579E-05
1	154	81.8059027934599	1.35086059570313	1.35040283203125	1.74407958984375E-06	2.35520997193817E-06	774278.25	1.98154702957254E-05
1	155	81.9066107932057	1.36093139648438	1.36077880859375	1.76116943359375E-06	2.39656196754368E-06	772656.375	1.99919722945197E-05
1	156	82.0073187929514	1.37100219726563	1.370849609375	1.77978515625E-06	2.43981776293367E-06	770233.25	2.0170273273834E-05
1	157	82.1080267926972	1.38107299804688	1.3812255859375	1.7999267578125E-06	2.48610490416468E-06	767378.8125	2.03505260287784E-05
1	158	82.2087347924429	1.39114379882813	1.39129638671875	1.822509765625E-06	2.53565121965948E-06	763395.875	2.05329306481872E-05
1	159	82.3094427921886	1.40121459960938	1.40106201171875	1.84783935546875E-06	2.58893737736798E-06	758216.375	2.0717747247545E-05
1	160	82.4101507919344	1.41128540039063	1.4111328125	1.87713623046875E-06	2.64888831225107E-06	751747.75	2.09053159778705E-05
1	161	82.5108587916801	1.42135620117188	1.4208984375	1.91009521484375E-06	2.71405110652267E-06	743888.875	2.10960170079488E-05
1	162	82.6115667914258	1.43142700195313	1.43157958984375	1.94915771484375E-06	2.79037431027973E-06	734460.625	2.12903469218872E-05
1	163	82.7122747911716	1.44149780273438	1.44134521484375	1.99462890625E-06	2.87494867734495E-06	722613.25	2.14889314520406E-05
1	164	82.8129827909173	1.45156860351563	1.45111083984375	2.04864501953125E-06	2.97281098937674E-06	708327.125	2.16925272980006E-05
1	165	82.9136907906631	1.46163940429688	1.4617919921875	2.1136474609375E-06	3.08971289086912E-06	691596.875	2.1902114895056E-05
1	166	83.0143987904088	1.47171020507813	1.47186279296875	2.1929931640625E-06	3.22778510053467E-06	671166.125	2.21189711737679E-05
1	167	83.1151067901545	1.48178100585938	1.48162841796875	2.2882080078125E-06	3.3902738323377E-06	647506	2.23446168092778E-05
1	168	83.2158147899003	1.49185180664063	1.49261474609375	2.40020751953125E-06	3.58258512278553E-06	621869.0625	2.25806979869958E-05
1	169	83.316522789646	1.50192260742188	1.50146484375	2.52532958984375E-06	3.79169364350673E-06	594561.9375	2.28287190111587E-05
1	170	83.4172307893917	1.49185180664063	1.49139404296875	2.1844482421875E-06	3.25787300425873E-06	682732.625	2.30658752116142E-05
1	171	83.5179387891375	1.48178100585938	1.48193359375	1.934814453125E-06	2.86726663034642E-06	765930.625	2.32732963922899E-05
1	172	83.6186467888832	1.47171020507813	1.47125244140625	1.74102783203125E-06	2.56149132837891E-06	845048.25	2.34583894780371E-05
1	173	83.7193547886289	1.46163940429688	1.46148681640625	1.5850830078125E-06	2.31657782023831E-06	922025.4375	2.36258729273686E-05
1	174	83.8200627883747	1.45156860351563	1.45172119140625	1.46026611328125E-06	2.11989913623256E-06	994148.4375	2.37792173720663E-05
1	175	83.9207707881204	1.44149780273438	1.44134521484375	1.357421875E-06	1.95651341527991E-06	1061825.5	2.39211003645323E-05
1	176	84.0214787878662	1.43142700195313	1.4312744140625	1.273193359375E-06	1.82228905032389E-06	1124161.125	2.40535609918879E-05
1	177	84.1221867876119	1.42135620117188	1.42120361328125	1.20330810546875E-06	1.71014585248486E-06	1181080.375	2.41782636294374E-05
1	178	84.2228947873576	1.41128540039063	1.4111328125	1.14532470703125E-06	1.61620516792027E-06	1232081.125	2.42965270444984E-05
1	179	84.3236027871034	1.40121459960938	1.40106201171875	1.09649658203125E-06	1.53625967413973E-06	1277762.25	2.4409411707893E-05
1	180	84.4243107868491	1.39114379882813	1.3916015625	1.05499267578125E-06	1.46812931234308E-06	1319062.875	2.45177470787894E-05
1	181	84.5250187865948	1.38107299804688	1.3812255859375	1.01898193359375E-06	1.40744396048831E-06	1355495.625	2.46221807174152E-05
1	182	84.6257267863406	1.37100219726563	1.37054443359375	9.87854003906249E-07	1.3538976872951E-06	1387395.875	2.47232328547398E-05
1	183	84.7264347860863	1.36093139648438	1.361083984375	9.600830078125E-07	1.30675357468135E-06	1417673.25	2.48213182203472E-05
1	184	84.8271427858321	1.35086059570313	1.35101318359375	9.3536376953125E-07	1.26368877317873E-06	1444372	2.49167624133406E-05
1	185	84.9278507855778	1.34078979492188	1.34063720703125	9.1278076171875E-07	1.22370784083614E-06	1468739.5	2.50098237302154E-05
1	186	85.0285587853235	1.33071899414063	1.33056640625	8.93249511718749E-07	1.1885277899637E-06	1489579.875	2.51007641054457E-05
1	187	85.1292667850693	1.32064819335938	1.32080078125	8.746337890625E-07	1.15521697807708E-06	1510118.625	2.51897854468552E-05
1	188	85.229974784815	1.31057739257813	1.31072998046875	8.58154296874999E-07	1.12480859115749E-06	1527382.625	2.52770369115751E-05
1	189	85.3306827845607	1.30050659179688	1.3006591796875	8.4228515625E-07	1.09552593130502E-06	1544202.875	2.53626621997682E-05
1	190	85.4313907843065	1.29043579101563	1.29058837890625	8.282470703125E-07	1.0689260534491E-06	1558216.75	2.54467795457458E-05
1	191	85.5320987840522	1.28036499023438	1.280517578125	8.148193359375E-07	1.04339051176794E-06	1571535.625	2.55295144597767E-05
1	192	85.6328067837979	1.27029418945313	1.27044677734375	8.0169677734375E-07	1.01851310319034E-06	1584697.375	2.5610912416596E-05
1	193	85.7335147835437	1.26022338867188	1.26068115234375	7.89489746093749E-07	9.95294840322458E-07	1596830.375	2.56910352618434E-05
1	194	85.8342227832894	1.25015258789063	1.24969482421875	7.781982421875E-07	9.72510292740481E-07	1605882.375	2.5769973944989E-05
1	195	85.9349307830352	1.24008178710938	1.240234375	7.6751708984375E-07	9.51901029111468E-07	1615904.625	2.58478066825774E-05
1	196	86.0356387827809	1.23001098632813	1.2298583984375	7.5714111328125E-07	9.3117631649875E-07	1624345	2.59245807683328E-05
1	197	86.1363467825266	1.21994018554688	1.21978759765625	7.476806640625E-07	9.12011557829828E-07	1631428.625	2.60003544099163E-05
1	198	86.2370547822724	1.20986938476563	1.209716796875	7.38525390625E-07	8.93406593149848E-07	1638016.5	2.60751894529676E-05
1	199	86.3377627820181	1.19979858398438	1.20025634765625	7.2967529296875E-07	8.75797354638053E-07	1644918.5	2.61491204582853E-05
1	200	86.4384707817638	1.18972778320313	1.1895751953125	7.21435546875E-07	8.58201815390203E-07	1648900.25	2.62221892626258E-05
1	201	86.5391787815096	1.17965698242188	1.17950439453125	7.13500976562501E-07	8.41577559640427E-07	1653122.375	2.62944431597134E-05
1	202	86.6398867812553	1.16958618164063	1.16943359375	7.0526123046875E-07	8.24756114070624E-07	1658156.75	2.63658839685377E-05
1	203	86.7405947810011	1.15951538085938	1.15966796875	6.9793701171875E-07	8.09375137578172E-07	1661565.5	2.6436540792929E-05
1	204	86.8413027807468	1.14944458007813	1.14959716796875	6.9091796875E-07	7.94277298155066E-07	1663869.375	2.65064754785271E-05
1	205	86.9420107804925	1.13937377929688	1.1395263671875	6.8389892578125E-07	7.79320828314667E-07	1666220.5	2.65757025772473E-05
1	206	87.0427187802383	1.12930297851563	1.129150390625	6.76879882812501E-07	7.64299215916253E-07	1668169.5	2.66442239080789E-05
1	207	87.143426779984	1.11923217773438	1.11907958984375	6.70166015625E-07	7.49969103708281E-07	1669854.375	2.67120522039477E-05
1	208	87.2441347797297	1.10916137695313	1.1090087890625	6.634521484375E-07	7.35774221993779E-07	1671573.25	2.67792056547478E-05
1	209	87.3448427794755	1.09909057617188	1.09893798828125	6.56738281249999E-07	7.21714627616166E-07	1673327.125	2.68456824414898E-05
1	210	87.4455507792212	1.08901977539063	1.08856201171875	6.50634765624999E-07	7.08256322923262E-07	1673076.875	2.69115134869935E-05
1	211	87.5462587789669	1.07894897460938	1.07940673828125	6.4422607421875E-07	6.95381970672315E-07	1675509.25	2.69767151621636E-05
1	212	87.6469667787127	1.06887817382813	1.06842041015625	6.378173828125E-07	6.81457095197402E-07	1675119.625	2.70412710960954E-05
1	213	87.7476747784584	1.05880737304688	1.0589599609375	6.3201904296875E-07	6.69282826493145E-07	1675519.125	2.71052122116089E-05
1	214	87.8483827782042	1.04873657226563	1.048583984375	6.2591552734375E-07	6.56324971259892E-07	1675280.375	2.71685548796086E-05
1	215	87.9490907779499	1.03866577148438	1.038818359375	6.20422363281251E-07	6.44506087610353E-07	1674373	2.72313136520097E-05
1	216	88.0497987776956	1.02859497070313	1.0284423828125	6.146240234375E-07	6.32105411568773E-07	1673287	2.72935030807275E-05
1	217	88.1505067774414	1.01852416992188	1.01837158203125	6.0943603515625E-07	6.20632306436164E-07	1671006.5	2.73551395366667E-05
1	218	88.2512147771871	1.00845336914063	1.0089111328125	6.0394287109375E-07	6.09324672495859E-07	1670540.75	2.74162375717424E-05
1	219	88.3519227769328	0.998382568359375	0.99853515625	5.98754882812499E-07	5.97877772179345E-07	1667686.125	2.74767971859546E-05
1	220	88.4526307766786	0.988311767578125	0.98785400390625	5.9356689453125E-07	5.86357430165663E-07	1664267.375	2.75368365691975E-05
1	221	88.5533387764243	0.978240966796875	0.97900390625	5.88378906250001E-07	5.76025229293009E-07	1663900.5	2.75963520834921E-05
1	222	88.65404677617	0.968170166015625	0.96832275390625	5.8319091796875E-07	5.64717026918515E-07	1660387.25	2.76553455478279E-05
1	223	88.7547547759158	0.958099365234375	0.95794677734375	5.780029296875E-07	5.53696054339525E-07	1657339	2.77138151432155E-05
1	224	88.8554627756615	0.948028564453125	0.9478759765625	5.7373046875E-07	5.43825308341184E-07	1652127.625	2.77718099823687E-05
1	225	88.9561707754073	0.937957763671875	0.9381103515625	5.6884765625E-07	5.33641866695689E-07	1649141.625	2.78293427982135E-05
1	226	89.056878775153	0.927886962890625	0.9283447265625	5.63964843750001E-07	5.23553751463623E-07	1646104	2.78863844869193E-05
1	227	89.1575867748987	0.917816162109375	0.91827392578125	5.584716796875E-07	5.12829956278438E-07	1644262.375	2.79429041256662E-05
1	228	89.2582947746445	0.907745361328125	0.9075927734375	5.53283691406251E-07	5.02156240145268E-07	1640375.125	2.79988853435498E-05
1	229	89.3590027743902	0.897674560546875	0.89752197265625	5.48400878906249E-07	4.92201820634364E-07	1636616.625	2.80543590633897E-05
1	230	89.4597107741359	0.887603759765625	0.88775634765625	5.4351806640625E-07	4.82511609334324E-07	1633352	2.81093416560907E-05
1	231	89.5604187738817	0.877532958984375	0.877685546875	5.38024902343751E-07	4.72216669322734E-07	1631310.25	2.81638021988329E-05
1	232	89.6611267736274	0.867462158203125	0.8673095703125	5.3253173828125E-07	4.61869859691433E-07	1628653.375	2.82177097687963E-05
1	233	89.7618347733732	0.857391357421875	0.8575439453125	5.27343750000001E-07	4.52220433544426E-07	1626157.5	2.82710789178964E-05
1	234	89.8625427731189	0.847320556640625	0.84716796875	5.218505859375E-07	4.42095085873007E-07	1623391.875	2.8323909646133E-05
1	235	89.9632507728646	0.837249755859375	0.8380126953125	5.169677734375E-07	4.3322555143277E-07	1621015.375	2.83762183244107E-05
1	236	90.0639587726104	0.827178955078125	0.82733154296875	5.12084960937501E-07	4.23664033633031E-07	1615613.75	2.84280340565601E-05
1	237	90.1646667723561	0.817108154296875	0.81756591796875	5.0689697265625E-07	4.14421691630196E-07	1612883.75	2.84793441096554E-05
1	238	90.2653747721018	0.807037353515625	0.8074951171875	5.023193359375E-07	4.05620397714301E-07	1607533.5	2.85301630356116E-05
1	239	90.3660827718476	0.796966552734375	0.797119140625	4.9774169921875E-07	3.96759418208603E-07	1601471.625	2.85805199382594E-05
1	240	90.4667907715933	0.786895751953125	0.78704833984375	4.931640625E-07	3.88143945428965E-07	1595915.875	2.86304166365881E-05
1	241	90.567498771339	0.776824951171875	0.77728271484375	4.88891601562499E-07	3.80006980549297E-07	1589887.625	2.86798658635234E-05
1	242	90.6682067710848	0.766754150390625	0.76751708984375	4.8492431640625E-07	3.72187713537642E-07	1582756.375	2.87289021798642E-05
1	243	90.7689147708305	0.756683349609375	0.75714111328125	4.81262207031249E-07	3.64383396345147E-07	1573240.375	2.87775528704515E-05
1	244	90.8696227705763	0.746612548828125	0.746551513671875	4.7637939453125E-07	3.55641731175638E-07	1567136.5	2.88257742795395E-05
1	245	90.970330770322	0.736541748046875	0.7364501953125	4.7271728515625E-07	3.48132715544125E-07	1557908.375	2.88735645881388E-05
1	246	91.0710387700677	0.726470947265625	0.726409912109375	4.6844482421875E-07	3.40282952038251E-07	1550684	2.89209565380588E-05
1	247	91.1717467698135	0.716400146484375	0.716339111328125	4.6417236328125E-07	3.32504811240142E-07	1543261	2.89679173874902E-05
1	248	91.2724547695592	0.706329345703125	0.706268310546875	4.59899902343749E-07	3.24812731378188E-07	1535700.125	2.90144471364329E-05
1	249	91.3731627693049	0.696258544921875	0.6961669921875	4.55627441406251E-07	3.17192785814768E-07	1527930.375	2.90605476038763E-05
1	250	91.4738707690507	0.686187744140625	0.68609619140625	4.50744628906249E-07	3.09254147623506E-07	1522139.5	2.91061878670007E-05
1	251	91.5745787687964	0.676116943359375	0.67608642578125	4.45556640625E-07	3.0123479177746E-07	1517397.375	2.91513206320815E-05
1	252	91.6752867685422	0.666046142578125	0.665924072265625	4.412841796875E-07	2.93861745603863E-07	1509059.5	2.91959768219385E-05
1	253	91.7759947682879	0.655975341796875	0.65594482421875	4.3670654296875E-07	2.86455389186813E-07	1502026.625	2.92401873593917E-05
1	254	91.8767027680336	0.645904541015625	0.645904541015625	4.315185546875E-07	2.78719795687721E-07	1496817.625	2.92839049507165E-05
1	255	91.9774107677794	0.635833740234375	0.635772705078125	4.26635742187501E-07	2.71243351335215E-07	1490200.375	2.93271168629872E-05
1	256	92.0781187675251	0.625762939453125	0.625732421875	4.22058105468751E-07	2.64095433522016E-07	1482574.125	2.93698522000341E-05
1	257	92.1788267672708	0.615692138671875	0.615631103515625	4.1778564453125E-07	2.572018331648E-07	1473557.375	2.94121418846771E-05
1	258	92.2795347670166	0.605621337890625	0.6055908203125	4.132080078125E-07	2.50234961640672E-07	1465583.5	2.94539859169163E-05
1	259	92.3802427667623	0.595550537109375	0.59552001953125	4.08935546875E-07	2.43529285626209E-07	1456268.75	2.94953842967516E-05
1	260	92.480950766508	0.585479736328125	0.58544921875	4.0435791015625E-07	2.36731025893278E-07	1447849.125	2.95363352051936E-05
1	261	92.5816587662538	0.575408935546875	0.57537841796875	4.010009765625E-07	2.30727295047473E-07	1434855.5	2.95768895739457E-05
1	262	92.6823667659995	0.565338134765625	0.565399169921875	3.97338867187499E-07	2.24655053671086E-07	1422964.75	2.9617089239764E-05
1	263	92.7830747657453	0.555267333984375	0.555328369140625	3.93066406250001E-07	2.18280916897129E-07	1412810.625	2.96568887279136E-05
1	264	92.883782765491	0.545196533203125	0.54510498046875	3.89709472656249E-07	2.1243256753678E-07	1398747.125	2.9696304409299E-05
1	265	92.9844907652367	0.535125732421875	0.53509521484375	3.8604736328125E-07	2.06572096317359E-07	1386087	2.97353672067402E-05
1	266	93.0851987649825	0.525054931640625	0.52508544921875	3.8299560546875E-07	2.01105422092951E-07	1370996	2.97740916721523E-05
1	267	93.1859067647282	0.514984130859375	0.51495361328125	3.79638671875E-07	1.95496298260878E-07	1356430.875	2.98124923574505E-05
1	268	93.2866147644739	0.504913330078125	0.50494384765625	3.76281738281251E-07	1.9000114548362E-07	1341930.375	2.98505565297091E-05
1	269	93.3873227642197	0.494842529296875	0.494842529296875	3.72924804687499E-07	1.84539047154431E-07	1326923.125	2.98882823699387E-05
1	270	93.4880307639654	0.484771728515625	0.4847412109375	3.704833984375E-07	1.79588568016698E-07	1308402	2.99257153528742E-05
1	271	93.5887387637111	0.474700927734375	0.47467041015625	3.6773681640625E-07	1.74553790088794E-07	1290788.375	2.99628882203251E-05
1	272	93.6894467634569	0.464630126953125	0.464599609375	3.643798828125E-07	1.692907432016E-07	1275041.875	2.99997536785668E-05
1	273	93.7901547632026	0.454559326171875	0.454559326171875	3.6163330078125E-07	1.64383777701005E-07	1256962.125	3.00363117275992E-05
1	274	93.8908627629484	0.444488525390625	0.44451904296875	3.5858154296875E-07	1.59396321919303E-07	1239659.625	3.00725769193377E-05
1	275	93.9915707626941	0.434417724609375	0.43438720703125	3.558349609375E-07	1.54570145127764E-07	1220754.75	3.01085510727717E-05
1	276	94.0922787624398	0.424346923828125	0.424346923828125	3.521728515625E-07	1.49443451391562E-07	1204939.375	3.01442014460918E-05
1	277	94.1929867621856	0.414276123046875	0.414306640625	3.497314453125E-07	1.44896063147826E-07	1184642.25	3.01795444102027E-05
1	278	94.2936947619313	0.404205322265625	0.404205322265625	3.4637451171875E-07	1.40006406468274E-07	1166960.375	3.0214596336009E-05
1	279	94.394402761677	0.394134521484375	0.394134521484375	3.436279296875E-07	1.35435627157676E-07	1146980.5	3.02493408526061E-05
1	280	94.4951107614228	0.384063720703125	0.38409423828125	3.399658203125E-07	1.30578911239354E-07	1129802.5	3.02837634080788E-05
1	281	94.5958187611685	0.373992919921875	0.37396240234375	3.3721923828125E-07	1.26107309483814E-07	1108959.25	3.03178621834377E-05
1	282	94.6965267609143	0.363922119140625	0.363922119140625	3.338623046875E-07	1.21499866168051E-07	1090036.625	3.03516535495874E-05
1	283	94.79723476066	0.353851318359375	0.3538818359375	3.3111572265625E-07	1.17175829927874E-07	1068755.875	3.03851375065278E-05
1	284	94.8979427604057	0.343780517578125	0.343719482421875	3.28369140625E-07	1.12866871404549E-07	1046747.1875	3.0418344977079E-05
1	285	94.9986507601515	0.333709716796875	0.33380126953125	3.25927734375001E-07	1.08795084940994E-07	1024157.375	3.04512923321454E-05
1	286	95.0993587598972	0.323638916015625	0.32366943359375	3.2379150390625E-07	1.0480140844038E-07	999623.0625	3.04840086755576E-05
1	287	95.2000667596429	0.313568115234375	0.3135986328125	3.21044921874999E-07	1.00679251602287E-07	976806.0625	3.05164776364109E-05
1	288	95.3007747593887	0.303497314453125	0.303497314453125	3.17993164062499E-07	9.6510071045941E-08	954414.5625	3.0548657377949E-05
1	289	95.4014827591344	0.293426513671875	0.293365478515625	3.1585693359375E-07	9.26615228991068E-08	928792.25	3.05805733660236E-05
1	290	95.5021907588801	0.283355712890625	0.2833251953125	3.1280517578125E-07	8.86255833165706E-08	905756.125	3.06122274196241E-05
1	291	95.6028987586259	0.273284912109375	0.27325439453125	3.09143066406251E-07	8.44746992356704E-08	883909.25	3.06435467791744E-05
1	292	95.7036067583716	0.263214111328125	0.263214111328125	3.06091308593751E-07	8.05675455239907E-08	859920.25	3.06745241687167E-05
1	293	95.8043147581174	0.253143310546875	0.253173828125	3.02734374999999E-07	7.66444188116111E-08	836290.3125	3.07051814161241E-05
1	294	95.9050227578631	0.243072509765625	0.243133544921875	2.9876708984375E-07	7.26402973327822E-08	813789.625	3.0735471227672E-05
1	295	96.0057307576088	0.233001708984375	0.2330322265625	2.947998046875E-07	6.86978580688447E-08	790476.1875	3.07653572235722E-05
1	296	96.1064387573546	0.222930908203125	0.22296142578125	2.90527343749999E-07	6.47763869210394E-08	767437	3.07948321278673E-05
1	297	96.2071467571003	0.212860107421875	0.212860107421875	2.8533935546875E-07	6.07373635830299E-08	745989.3125	3.08238304569386E-05
1	298	96.307854756846	0.202789306640625	0.202880859375	2.7923583984375E-07	5.66516042965759E-08	726557.4375	3.08522576233372E-05
1	299	96.4085627565918	0.192718505859375	0.192718505859375	2.728271484375E-07	5.25788408367589E-08	706375.8125	3.08800554194022E-05
1	300	96.5092707563375	0.182647705078125	0.18267822265625	2.655029296875E-07	4.85016045104203E-08	688045.9375	3.09071656374726E-05
1	301	96.6099787560833	0.172576904296875	0.172576904296875	2.55737304687501E-07	4.41343495083402E-08	674821.0625	3.0933410016587E-05
1	302	96.710686755829	0.162506103515625	0.162506103515625	2.44750976562499E-07	3.97735249180187E-08	663965.125	3.09586102957837E-05
1	303	96.8113947555747	0.152435302734375	0.152496337890625	2.31018066406249E-07	3.52294087235805E-08	660105.6875	3.09825700242072E-05
1	304	96.9121027553205	0.142364501953125	0.142364501953125	2.1240234375E-07	3.02385529948879E-08	670258.625	3.10048963001464E-05
1	305	97.0128107550662	0.132293701171875	0.13232421875	1.8798828125E-07	2.48754012943664E-08	703896.125	3.10250579786953E-05
1	306	97.1135187548119	0.122222900390625	0.122222900390625	1.54724121093749E-07	1.8910830235086E-08	789940.8125	3.10423165501561E-05
1	307	97.2142267545577	0.112152099609375	0.1121826171875	1.09252929687501E-07	1.22562795468184E-08	1026815.625	3.10556060867384E-05
1	308	97.3149347543034	0.102081298828125	0.1021728515625	4.730224609375E-08	4.83300510722984E-09	2160000	3.10634895868134E-05
1	309	97.4156427540491	0.092010498046875	0.092132568359375	-3.814697265625E-08	-3.51457840608305E-09	-2415200	3.10639516101219E-05
1	310	97.5163507537949	0.081939697265625	0.081939697265625	-1.5228271484375E-07	-1.24779990784418E-08	-538076.1875	3.10543618979864E-05
1	311	97.6170587535406	0.071868896484375	0.0718994140625	-3.0487060546875E-07	-2.19200178008805E-08	-235835.828125	3.10313444060739E-05
1	312	97.7177667532864	0.061798095703125	0.06182861328125	-4.986572265625E-07	-3.08312806396316E-08	-123990.21875	3.09908828057814E-05
1	313	97.8184747530321	0.051727294921875	0.0517578125	-7.36083984374999E-07	-3.80980971215195E-08	-70315.09375	3.09287097479682E-05
1	314	97.9191827527778	0.041656494140625	0.041754150390625	-1.009521484375E-06	-4.21517114546077E-08	-41360.3359375	3.08408089040313E-05
1	315	98.0198907525236	0.031585693359375	0.0317047119140625	-1.30218505859375E-06	-4.12854035403143E-08	-24347.31640625	3.07244081341196E-05
1	316	98.1205987522693	0.021514892578125	0.0215972900390625	-1.5875244140625E-06	-3.42862236379915E-08	-13604.3837890625	3.05788962577935E-05
1	317	98.221306752015	0.011444091796875	0.0115020751953125	-1.8353271484375E-06	-2.11100701363875E-08	-6267.04345703125	3.04065433738288E-05
1	318	98.3220147517608	0.001373291015625	0.00146484375	-2.022705078125E-06	-2.96294677681885E-09	-724.200378417969	3.02122771245195E-05
1	319	98.4227227515065	-0.008697509765625	-0.0086181640625	-2.13653564453125E-06	1.84130133362714E-08	4033.70947265625	3.0002842322574E-05
1	320	98.5234307512522	-0.018768310546875	-0.0186309814453125	-2.177734375E-06	4.05733295849586E-08	8555.212890625	2.97856004181085E-05
1	321	98.624138750998	-0.028839111328125	-0.0287506103515625	-2.1612548828125E-06	6.21373956732896E-08	13302.7392578125	2.95671161438804E-05
1	322	98.7248467507437	-0.038909912109375	-0.0387603759765625	-2.10479736328125E-06	8.15827263522806E-08	18415.25390625	2.93523025902687E-05
1	323	98.8255547504895	-0.048980712890625	-0.04881591796875	-2.02606201171875E-06	9.89040742638281E-08	24093.990234375	2.91442975139944E-05
1	324	98.9262627502352	-0.059051513671875	-0.058990478515625	-1.93756103515625E-06	1.14297648678985E-07	30445.7421875	2.89447125396691E-05
1	325	99.0269707499809	-0.069122314453125	-0.069122314453125	-1.8475341796875E-06	1.27705831687308E-07	37413.28125	2.87541188299656E-05
1	326	99.1276787497267	-0.079193115234375	-0.079132080078125	-1.76300048828125E-06	1.39509893415379E-07	44884.890625	2.857231447706E-05
1	327	99.2283867494724	-0.089263916015625	-0.0892333984375	-1.68548583984375E-06	1.50401632481589E-07	52942.2421875	2.83986682916293E-05
1	328	99.3290947492181	-0.099334716796875	-0.099334716796875	-1.614990234375E-06	1.60424590944785E-07	61507.9375	2.82324763247743E-05
1	329	99.4298027489639	-0.109405517578125	-0.10931396484375	-1.55303955078125E-06	1.69768910041057E-07	70387.109375	2.80729527730728E-05
1	330	99.5305107487096	-0.119476318359375	-0.119354248046875	-1.4984130859375E-06	1.78841972342525E-07	79653.765625	2.79193009191658E-05
1	331	99.6312187484554	-0.129547119140625	-0.129486083984375	-1.45050048828125E-06	1.87819622965435E-07	89269.9375	2.77708113571862E-05
1	332	99.7319267482011	-0.139617919921875	-0.139495849609375	-1.40899658203125E-06	1.96549180486727E-07	99003.6796875	2.76268237939803E-05
1	333	99.8326347479468	-0.149688720703125	-0.149627685546875	-1.37237548828125E-06	2.05345358494924E-07	109028.2421875	2.74867707048543E-05
1	334	99.9333427476926	-0.159759521484375	-0.159637451171875	-1.34124755859375E-06	2.14113342167366E-07	119021.6171875	2.73501282208599E-05
1	335	100.034050747438	-0.169830322265625	-0.169708251953125	-1.31378173828125E-06	2.22959599227579E-07	129175.3828125	2.72164379566675E-05
1	336	100.134758747184	-0.179901123046875	-0.179718017578125	-1.290283203125E-06	2.31887142376763E-07	139285.71875	2.70853124675341E-05
1	337	100.23546674693	-0.189971923828125	-0.189788818359375	-1.26953125E-06	2.40942824802914E-07	149495.1875	2.695641524042E-05
1	338	100.336174746676	-0.200042724609375	-0.199920654296875	-1.25244140625E-06	2.50388893618947E-07	159624.765625	2.68294243142009E-05
1	339	100.436882746421	-0.189971923828125	-0.189849853515625	-1.0992431640625E-06	2.08691147918216E-07	172709.609375	2.671100810403E-05
2	340	100.537590746167	-0.179901123046875	-0.17974853515625	-9.94262695312501E-07	1.78717257881544E-07	180785.765625	2.66055903921369E-05
2	341	100.638298745913	-0.169830322265625	-0.169708251953125	-9.1064453125E-07	1.54543897679105E-07	186360.59375	2.65096714429092E-05
2	342	100.739006745658	-0.159759521484375	-0.159576416015625	-8.3892822265625E-07	1.33873157892594E-07	190214.625	2.64215741481166E-05
2	343	100.839714745404	-0.149688720703125	-0.149627685546875	-7.76062011718751E-07	1.16120361326466E-07	192803.78125	2.63402525888523E-05
2	344	100.94042274515	-0.139617919921875	-0.139495849609375	-7.19299316406249E-07	1.00339264008653E-07	193932.96875	2.62649555224925E-05
2	345	101.041130744896	-0.129547119140625	-0.1295166015625	-6.67419433593749E-07	8.64419007484685E-08	194055.78125	2.61951281572692E-05
2	346	101.141838744641	-0.119476318359375	-0.119415283203125	-6.18591308593749E-07	7.38692520485529E-08	193043.921875	2.6130372134503E-05
2	347	101.242546744387	-0.109405517578125	-0.109283447265625	-5.7037353515625E-07	6.23323828108369E-08	191599.796875	2.60705037362641E-05
2	348	101.343254744133	-0.099334716796875	-0.099212646484375	-5.22766113281251E-07	5.18650047354186E-08	189784.015625	2.60154592979234E-05
2	349	101.443962743879	-0.089263916015625	-0.089141845703125	-4.7149658203125E-07	4.20300736436729E-08	189061.484375	2.59653934335802E-05
2	350	101.544670743624	-0.079193115234375	-0.079193115234375	-4.16259765625E-07	3.29649054719994E-08	190249.265625	2.5920691768988E-05
2	351	101.64537874337	-0.069122314453125	-0.069091796875	-3.51867675781251E-07	2.43111699660403E-08	196357.328125	2.58820145973004E-05
2	352	101.746086743116	-0.059051513671875	-0.058929443359375	-2.74047851562501E-07	1.6149487080952E-08	215033.421875	2.58504969679052E-05
2	353	101.846794742862	-0.048980712890625	-0.0488189697265625	-1.7730712890625E-07	8.6559515111162E-09	275335.625	2.58277686953079E-05
2	354	101.947502742607	-0.038909912109375	-0.038763427734375	-5.43212890625006E-08	2.10567918657034E-09	713595.5	2.58161053352524E-05
2	355	102.048210742353	-0.028839111328125	-0.02874755859375	1.03149414062501E-07	-2.96529378829291E-09	-278698.21875	2.5818564608926E-05
2	356	102.148918742099	-0.018768310546875	-0.018646240234375	2.9937744140625E-07	-5.58226354030467E-09	-62283.38671875	2.58388336078497E-05
2	357	102.249626741845	-0.008697509765625	-0.0086181640625	5.3863525390625E-07	-4.64204674699431E-09	-16000.0009765625	2.58810305240331E-05
2	358	102.35033474159	0.001373291015625	0.00147094726562499	8.15734863281251E-07	1.19990295477379E-09	1803.21740722656	2.59492280747509E-05
2	359	102.451042741336	0.011444091796875	0.01156005859375	1.11663818359375E-06	1.29084023470227E-08	10352.5556640625	2.60465312749147E-05
2	360	102.551750741082	0.021514892578125	0.0216278076171875	1.417236328125E-06	3.06517122794503E-08	15260.5517578125	2.61741224676371E-05
2	361	102.652458740827	0.031585693359375	0.0316558837890625	1.68853759765625E-06	5.34521511497132E-08	18747.517578125	2.63305100816069E-05
2	362	102.753166740573	0.041656494140625	0.041748046875	1.905517578125E-06	7.9551632836683E-08	21909.033203125	2.65114849753445E-05
2	363	102.853874740319	0.051727294921875	0.051788330078125	2.05078125E-06	1.06206535122055E-07	25252.9765625	2.67107006948208E-05
2	364	102.954582740065	0.061798095703125	0.06182861328125	2.12310791015625E-06	1.31268819814068E-07	29121.748046875	2.69208721874747E-05
2	365	103.05529073981	0.071868896484375	0.071929931640625	2.1319580078125E-06	1.53351592757645E-07	33738.90625	2.71351327683078E-05
2	366	103.155998739556	0.081939697265625	0.08203125	2.09625244140625E-06	1.71958220107626E-07	39132.33203125	2.73480400210246E-05
2	367	103.256706739302	0.092010498046875	0.092071533203125	2.03216552734375E-06	1.87104589599585E-07	45307.10546875	2.75559214060195E-05
2	368	103.357414739048	0.102081298828125	0.102142333984375	1.9537353515625E-06	1.99559096358826E-07	52280.53515625	2.77566268778173E-05
2	369	103.458122738793	0.112152099609375	0.112152099609375	1.87164306640625E-06	2.09908691317651E-07	59921.73828125	2.79492505796952E-05
2	370	103.558830738539	0.122222900390625	0.12225341796875	1.79229736328125E-06	2.19114468791304E-07	68210.453125	2.81337452179287E-05
2	371	103.659538738285	0.132293701171875	0.13232421875	1.71722412109375E-06	2.27230344762575E-07	77057.046875	2.83104636764619E-05
2	372	103.760246738031	0.142364501953125	0.1424560546875	1.6497802734375E-06	2.35021175853944E-07	86348.5078125	2.84800044028088E-05
2	373	103.860954737776	0.152435302734375	0.1524658203125	1.58905029296875E-06	2.42275859818619E-07	95947.765625	2.86430931737414E-05
2	374	103.961662737522	0.162506103515625	0.16253662109375	1.5350341796875E-06	2.49499265692066E-07	105884.6953125	2.88004030153388E-05
2	375	104.062370737268	0.172576904296875	0.172637939453125	1.48712158203125E-06	2.56733585501934E-07	116088.65625	2.89525814878289E-05
2	376	104.163078737014	0.182647705078125	0.182647705078125	1.44439697265625E-06	2.6381579232293E-07	126452.5703125	2.9100194296916E-05
2	377	104.263786736759	0.192718505859375	0.192718505859375	1.407470703125E-06	2.71245653493679E-07	136925.421875	2.92437980533578E-05
2	378	104.364494736505	0.202789306640625	0.202789306640625	1.37481689453125E-06	2.7879815434062E-07	147502.78125	2.93838966172189E-05
2	379	104.465202736251	0.212860107421875	0.21282958984375	1.3446044921875E-06	2.8617162683986E-07	158284.15625	2.95208301395178E-05
2	380	104.565910735996	0.222930908203125	0.222900390625	1.31805419921875E-06	2.93794784056445E-07	169113.21875	2.96549060294637E-05
2	381	104.666618735742	0.233001708984375	0.233001708984375	1.29425048828125E-06	3.01562550930612E-07	180028.3125	2.97864462481812E-05
2	382	104.767326735488	0.243072509765625	0.24298095703125	1.273193359375E-06	3.093617237937E-07	190843.71875	2.99157272820594E-05
2	383	104.868034735234	0.253143310546875	0.253143310546875	1.25396728515625E-06	3.17433432428516E-07	201873.9375	3.00429801427526E-05
2	384	104.968742734979	0.263214111328125	0.263214111328125	1.23626708984375E-06	3.2540293659622E-07	212910.40625	3.01683739962755E-05
2	385	105.069450734725	0.273284912109375	0.273284912109375	1.220703125E-06	3.33599729174239E-07	223875	3.02920907415682E-05
2	386	105.170158734471	0.283355712890625	0.283294677734375	1.20635986328125E-06	3.41755310273584E-07	234834.3125	3.04143031826243E-05
2	387	105.270866734217	0.293426513671875	0.293365478515625	1.192626953125E-06	3.49875563188107E-07	245982.609375	3.05351022689138E-05
2	388	105.371574733962	0.303497314453125	0.303466796875	1.18072509765625E-06	3.58310870751666E-07	257017.3125	3.06546098727267E-05
2	389	105.472282733708	0.313568115234375	0.313568115234375	1.17034912109375E-06	3.66984153288286E-07	267927	3.07729969790671E-05
2	390	105.572990733454	0.323638916015625	0.32366943359375	1.16058349609375E-06	3.75645385020107E-07	278885.09375	3.08903690893203E-05
2	391	105.6736987332	0.333709716796875	0.333770751953125	1.151123046875E-06	3.84211176651661E-07	289952.28125	3.1006769859232E-05
2	392	105.774406732945	0.343780517578125	0.343780517578125	1.14410400390625E-06	3.93320647162909E-07	300480.125	3.11223448079545E-05
2	393	105.875114732691	0.353851318359375	0.35382080078125	1.1370849609375E-06	4.02324303649948E-07	311164.78125	3.12372139887884E-05
2	394	105.975822732437	0.363922119140625	0.3638916015625	1.1309814453125E-06	4.11554651691404E-07	321748.53125	3.13514174195006E-05
2	395	106.076530732183	0.373992919921875	0.374053955078125	1.12518310546875E-06	4.20879189277912E-07	332438.3125	3.14650242216885E-05
2	396	106.177238731928	0.384063720703125	0.384063720703125	1.12060546875E-06	4.30383920502209E-07	342728.75	3.1578110792907E-05
2	397	106.277946731674	0.394134521484375	0.3941650390625	1.116943359375E-06	4.40259981360214E-07	352896.1875	3.16907789965626E-05
2	398	106.37865473142	0.404205322265625	0.40423583984375	1.11297607421875E-06	4.49904803190293E-07	363202.625	3.18030652124435E-05
2	399	106.479362731165	0.414276123046875	0.414276123046875	1.109619140625E-06	4.59688720866325E-07	373349.84375	3.1914980354486E-05
2	400	106.580070730911	0.424346923828125	0.424346923828125	1.10687255859375E-06	4.69697965854721E-07	383374.6875	3.20265899063088E-05
2	401	106.680778730657	0.434417724609375	0.434417724609375	1.104736328125E-06	4.79916991480422E-07	393232.0625	3.21379557135515E-05
2	402	106.781486730403	0.444488525390625	0.44451904296875	1.10321044921875E-06	4.90398008423654E-07	402932.25	3.22491323458962E-05
2	403	106.882194730148	0.454559326171875	0.45452880859375	1.10137939453125E-06	5.00608621223364E-07	412690.53125	3.23601416312158E-05
2	404	106.982902729894	0.464630126953125	0.464599609375	1.10015869140625E-06	5.1113329391228E-07	422302.375	3.24709981214255E-05
2	405	107.08361072964	0.474700927734375	0.474700927734375	1.09954833984375E-06	5.21956565080473E-07	431723.59375	3.2581763662165E-05
2	406	107.184318729386	0.484771728515625	0.4847412109375	1.0992431640625E-06	5.3284844625523E-07	440977.25	3.26924819091801E-05
2	407	107.285026729131	0.494842529296875	0.494873046875	1.0992431640625E-06	5.43985834156047E-07	450194.34375	3.28031819663011E-05
2	408	107.385734728877	0.504913330078125	0.504791259765625	1.09954833984375E-06	5.55042390715244E-07	459089.65625	3.29139002133161E-05
2	409	107.486442728623	0.514984130859375	0.514984130859375	1.10015869140625E-06	5.66564267501235E-07	468099.875	3.30246657540556E-05
2	410	107.587150728369	0.525054931640625	0.52508544921875	1.1016845703125E-06	5.78478534407623E-07	476620.5	3.31355367961805E-05
2	411	107.687858728114	0.535125732421875	0.535064697265625	1.1029052734375E-06	5.90125637245364E-07	485141.125	3.32465460815001E-05
2	412	107.78856672786	0.545196533203125	0.545135498046875	1.104736328125E-06	6.02230954882543E-07	493453.0625	3.33577117999084E-05
2	413	107.889274727606	0.555267333984375	0.555206298828125	1.10748291015625E-06	6.14881457750016E-07	501322.71875	3.34691067109816E-05
2	414	107.989982727352	0.565338134765625	0.5653076171875	1.109619140625E-06	6.27276165232615E-07	509460.96875	3.35807453666348E-05
2	415	108.090690727097	0.575408935546875	0.57537841796875	1.11236572265625E-06	6.40031203147373E-07	517256.53125	3.36926314048469E-05
2	416	108.191398726843	0.585479736328125	0.58551025390625	1.11572265625E-06	6.53267022698856E-07	524781.1875	3.38048230332788E-05
2	417	108.292106726589	0.595550537109375	0.595550537109375	1.119384765625E-06	6.66650180392026E-07	532033.8125	3.39173711836338E-05
2	418	108.392814726334	0.605621337890625	0.605560302734375	1.123046875E-06	6.80072616887628E-07	539211.9375	3.40302867698483E-05
2	419	108.49352272608	0.615692138671875	0.615631103515625	1.12762451171875E-06	6.94200707584969E-07	545954	3.41436170856468E-05
2	420	108.594230725826	0.625762939453125	0.625701904296875	1.13189697265625E-06	7.08230061263748E-07	552790.5	3.42573912348598E-05
2	421	108.694938725572	0.635833740234375	0.635772705078125	1.136474609375E-06	7.22539482467255E-07	559425.375	3.43716128554661E-05
2	422	108.795646725317	0.645904541015625	0.64581298828125	1.141357421875E-06	7.3710344850042E-07	565828.875	3.44863110512961E-05
2	423	108.896354725063	0.655975341796875	0.6558837890625	1.146240234375E-06	7.51800314446882E-07	572204.5	3.4601500374265E-05
2	424	108.997062724809	0.666046142578125	0.665985107421875	1.151123046875E-06	7.66630762427667E-07	578552.5	3.47171844623517E-05
2	425	109.097770724555	0.676116943359375	0.676055908203125	1.156005859375E-06	7.81524590820482E-07	584820.5	3.48333560395986E-05
2	426	109.1984787243	0.686187744140625	0.686065673828125	1.16119384765625E-06	7.9665522889627E-07	590827.875	3.49500369338784E-05
2	427	109.299186724046	0.696258544921875	0.696197509765625	1.1663818359375E-06	8.12032112662564E-07	596886.4375	3.50672380591277E-05
2	428	109.399894723792	0.706329345703125	0.70623779296875	1.1712646484375E-06	8.27191399821459E-07	602970.3125	3.518494850141E-05
2	429	109.500602723538	0.716400146484375	0.716339111328125	1.17584228515625E-06	8.42301801640133E-07	609213.625	3.5303135518916E-05
2	430	109.601310723283	0.726470947265625	0.7264404296875	1.18011474609375E-06	8.57283055211155E-07	615567.625	3.54217663698364E-05
2	431	109.702018723029	0.736541748046875	0.73638916015625	1.18438720703125E-06	8.7216989186345E-07	621747	3.55408301402349E-05
2	432	109.802726722775	0.746612548828125	0.74652099609375	1.18865966796875E-06	8.87359419721179E-07	628035.9375	3.56603231921326E-05
2	433	109.903434722521	0.756683349609375	0.7574462890625	1.19293212890625E-06	9.03582019873284E-07	634945	3.57802455255296E-05
2	434	110.004142722266	0.766754150390625	0.76690673828125	1.19659423828125E-06	9.17676175049564E-07	640907.9375	3.59005680365954E-05
2	435	110.104850722012	0.776824951171875	0.77728271484375	1.199951171875E-06	9.32701311739947E-07	647761.9375	3.60212434316054E-05
2	436	110.205558721758	0.786895751953125	0.78704833984375	1.20391845703125E-06	9.47541934692708E-07	653738.9375	3.6142286262475E-05
2	437	110.306266721503	0.796966552734375	0.797119140625	1.2066650390625E-06	9.61855789682886E-07	660596.875	3.62636674253736E-05
2	438	110.406974721249	0.807037353515625	0.80718994140625	1.209716796875E-06	9.76471142166702E-07	667255.3125	3.63853432645556E-05
2	439	110.507682720995	0.817108154296875	0.81695556640625	1.21337890625E-06	9.91276579043188E-07	673289.8125	3.65073574357666E-05
2	440	110.608390720741	0.827178955078125	0.82733154296875	1.21673583984375E-06	1.00664385627169E-06	679959.9375	3.66297208529431E-05
2	441	110.709098720486	0.837249755859375	0.83740234375	1.21978759765625E-06	1.02145293112699E-06	686514.875	3.67524116882123E-05
2	442	110.809806720232	0.847320556640625	0.84747314453125	1.22314453125E-06	1.0365821481173E-06	692864.25	3.68754226656165E-05
2	443	110.910514719978	0.857391357421875	0.85693359375	1.2261962890625E-06	1.05076878753607E-06	698855.1875	3.69987574231345E-05
2	444	111.011222719724	0.867462158203125	0.86761474609375	1.23046875E-06	1.06757272533287E-06	705109.1875	3.71224596165121E-05
2	445	111.111930719469	0.877532958984375	0.87738037109375	1.23443603515625E-06	1.08306994661689E-06	710754	3.72465765394736E-05
2	446	111.212638719215	0.887603759765625	0.887451171875	1.23870849609375E-06	1.09929328573344E-06	716432.625	3.73711081920192E-05
2	447	111.313346718961	0.897674560546875	0.8978271484375	1.24267578125E-06	1.11570795979787E-06	722495.125	3.74960582121275E-05
2	448	111.414054718707	0.907745361328125	0.90789794921875	1.24755859375E-06	1.13265582513122E-06	727739.75	3.76214520656504E-05
2	449	111.514762718452	0.917816162109375	0.9173583984375	1.25244140625E-06	1.14893759928236E-06	732456.125	3.77473370463122E-05
2	450	111.615470718198	0.927886962890625	0.92803955078125	1.25732421875E-06	1.16684657314181E-06	738106.8125	3.78737131541129E-05
2	451	111.716178717944	0.937957763671875	0.93780517578125	1.2628173828125E-06	1.18427669804078E-06	742629.3125	3.80006131308619E-05
2	452	111.816886717689	0.948028564453125	0.94757080078125	1.26861572265625E-06	1.20210324894288E-06	746932.875	3.81280806323048E-05
2	453	111.917594717435	0.958099365234375	0.95855712890625	1.27410888671875E-06	1.22130609270243E-06	752335.375	3.82561156584416E-05
2	454	112.018302717181	0.968170166015625	0.9686279296875	1.2799072265625E-06	1.23975382848585E-06	756795.4375	3.83847218472511E-05
2	455	112.119010716927	0.978240966796875	0.97900390625	1.28570556640625E-06	1.25871065392857E-06	761452.6875	3.85139101126697E-05
2	456	112.219718716672	0.988311767578125	0.9881591796875	1.29119873046875E-06	1.27590988086013E-06	765303.75	3.86436659027822E-05
2	457	112.320426716418	0.998382568359375	0.99853515625	1.29638671875E-06	1.29448767438589E-06	770244.8125	3.8773963751737E-05
2	458	112.421134716164	1.00845336914063	1.00830078125	1.3018798828125E-06	1.31268643599469E-06	774496.0625	3.89047963835765E-05
2	459	112.52184271591	1.01852416992188	1.01837158203125	1.30767822265625E-06	1.3317022649062E-06	778763.125	3.90361965401098E-05
2	460	112.622550715655	1.02859497070313	1.0284423828125	1.3134765625E-06	1.35083496388688E-06	782992.5625	3.91681824112311E-05
2	461	112.723258715401	1.03866577148438	1.0382080078125	1.31744384765625E-06	1.36778066917032E-06	788047.3125	3.93006594094913E-05
2	462	112.823966715147	1.04873657226563	1.04888916015625	1.32232666015625E-06	1.38697407692234E-06	793214.875	3.94335838791449E-05
2	463	112.924674714893	1.05880737304688	1.05865478515625	1.3275146484375E-06	1.4053797485758E-06	797471.3125	3.95670140278526E-05
2	464	113.025382714638	1.06887817382813	1.06903076171875	1.33148193359375E-06	1.42339513331535E-06	802887.9375	3.970090256189E-05
2	465	113.126090714384	1.07894897460938	1.0791015625	1.3360595703125E-06	1.44174396154995E-06	807674.75	3.98352240154054E-05
2	466	113.22679871413	1.08901977539063	1.0894775390625	1.34002685546875E-06	1.45992919442506E-06	813026.625	3.99699783883989E-05
2	467	113.327506713876	1.09909057617188	1.09893798828125	1.3446044921875E-06	1.47763694258174E-06	817294.625	4.01051584049128E-05
2	468	113.428214713621	1.10916137695313	1.10931396484375	1.348876953125E-06	1.49632796819787E-06	822398.1875	4.024078589282E-05
2	469	113.528922713367	1.11923217773438	1.119384765625	1.35345458984375E-06	1.51503638790018E-06	827057.5	4.03768608521204E-05
2	470	113.629630713113	1.12930297851563	1.12884521484375	1.3580322265625E-06	1.53300811689405E-06	831236	4.05133941967506E-05
2	471	113.730338712858	1.13937377929688	1.13922119140625	1.36322021484375E-06	1.55300938331493E-06	835683.875	4.06504186685197E-05
2	472	113.831046712604	1.14944458007813	1.1492919921875	1.368408203125E-06	1.57270062572934E-06	839875.125	4.0787967009237E-05
2	473	113.93175471235	1.15951538085938	1.1590576171875	1.37420654296875E-06	1.5927844287944E-06	843437.75	4.0926068322733E-05
2	474	114.032462712096	1.16958618164063	1.16973876953125	1.38031005859375E-06	1.61460206982156E-06	847446.4375	4.10647699027322E-05
2	475	114.133170711841	1.17965698242188	1.17919921875	1.38702392578125E-06	1.63557751875487E-06	850165.0625	4.12041154049803E-05
2	476	114.233878711587	1.18972778320313	1.18927001953125	1.39373779296875E-06	1.65753056080575E-06	853295.375	4.13441412092652E-05
2	477	114.334586711333	1.19979858398438	1.199951171875	1.4013671875E-06	1.68157214375242E-06	856271.8125	4.14848836953752E-05
2	478	114.435294711079	1.20986938476563	1.21002197265625	1.40960693359375E-06	1.70565522239485E-06	858410.9375	4.16264265368227E-05
2	479	114.536002710824	1.21994018554688	1.2200927734375	1.4190673828125E-06	1.73139380876819E-06	859785	4.17688643210568E-05
2	480	114.63671071057	1.23001098632813	1.2298583984375	1.4288330078125E-06	1.7572622255102E-06	860743.25	4.19122661696747E-05
2	481	114.737418710316	1.24008178710938	1.24053955078125	1.43890380859375E-06	1.78501693426369E-06	862142.125	4.20566684624646E-05
2	482	114.838126710062	1.25015258789063	1.2506103515625	1.45050048828125E-06	1.81401094323519E-06	862192.3125	4.22021621488966E-05
2	483	114.938834709807	1.26022338867188	1.2603759765625	1.46240234375E-06	1.84317673301848E-06	861853.0625	4.23488381784409E-05
2	484	115.039542709553	1.27029418945313	1.27044677734375	1.47552490234375E-06	1.87457578704198E-06	861013.4375	4.24967729486525E-05
2	485	115.140250709299	1.28036499023438	1.280517578125	1.4886474609375E-06	1.90623916296317E-06	860188.625	4.26460319431499E-05
2	486	115.240958709045	1.29043579101563	1.290283203125	1.50360107421875E-06	1.94007111531391E-06	858128.6875	4.27967024734244E-05
2	487	115.34166670879	1.30050659179688	1.3006591796875	1.51885986328125E-06	1.97551889868919E-06	856339.1875	4.29488973168191E-05
2	488	115.442374708536	1.31057739257813	1.31103515625	1.53472900390625E-06	2.01208376893192E-06	854245.375	4.31026564911008E-05
2	489	115.543082708282	1.32064819335938	1.32049560546875	1.5521240234375E-06	2.04957291316532E-06	850766.8125	4.32580927736126E-05
2	490	115.643790708027	1.33071899414063	1.33087158203125	1.57012939453125E-06	2.08964047487825E-06	847619.0625	4.34153116657399E-05
2	491	115.744498707773	1.34078979492188	1.3409423828125	1.58905029296875E-06	2.13082489608496E-06	843864.0625	4.35743895650376E-05
2	492	115.845206707519	1.35086059570313	1.3507080078125	1.60858154296875E-06	2.17272395275359E-06	839688.875	4.37354028690606E-05
2	493	115.945914707265	1.36093139648438	1.36077880859375	1.629638671875E-06	2.2175777303346E-06	835018.75	4.38984570791945E-05
2	494	116.04662270701	1.37100219726563	1.370849609375	1.651611328125E-06	2.26411066250876E-06	830007.375	4.40636831626762E-05
2	495	116.147330706756	1.38107299804688	1.38153076171875	1.67388916015625E-06	2.31252920457337E-06	825341.875	4.42311356891878E-05
2	496	116.248038706502	1.39114379882813	1.39068603515625	1.6986083984375E-06	2.3622308162885E-06	818720.8125	4.4400952901924E-05
2	497	116.348746706248	1.40121459960938	1.4013671875	1.7254638671875E-06	2.41800830735883E-06	812168.4375	4.45733712695073E-05
2	498	116.449454705993	1.41128540039063	1.4111328125	1.7559814453125E-06	2.47792308982753E-06	803614.875	4.47486745542847E-05
2	499	116.550162705739	1.42135620117188	1.4215087890625	1.79046630859375E-06	2.54516362474533E-06	793932.1875	4.49272520199884E-05
2	500	116.650870705485	1.43142700195313	1.431884765625	1.83074951171875E-06	2.62142225437856E-06	782130.375	4.51095947937574E-05
2	501	116.751578705231	1.44149780273438	1.4410400390625	1.87744140625E-06	2.70546820502204E-06	767555.25	4.52963176940102E-05
2	502	116.852286704976	1.45156860351563	1.45172119140625	1.93267822265625E-06	2.80570975519367E-06	751144.875	4.5488170144381E-05
2	503	116.952994704722	1.46163940429688	1.4617919921875	1.995849609375E-06	2.9175168947404E-06	732415.9375	4.56859888799954E-05
2	504	117.053702704468	1.47171020507813	1.4715576171875	2.0709228515625E-06	3.0474823233817E-06	710580.625	4.58907670690678E-05
2	505	117.154410704214	1.48178100585938	1.48193359375	2.16094970703125E-06	3.20238382300886E-06	685778.875	4.61038580397144E-05
2	506	117.255118703959	1.49185180664063	1.49169921875	2.2662353515625E-06	3.38054132953403E-06	658227.875	4.63267861050554E-05
2	507	117.355826703705	1.50192260742188	1.5020751953125	2.38433837890625E-06	3.58145553036593E-06	629975.6875	4.6560959162889E-05
2	508	117.456534703451	1.49185180664063	1.49139404296875	2.06390380859375E-06	3.0780938686803E-06	722608.3125	4.67849458800629E-05
2	509	117.557242703196	1.48178100585938	1.48162841796875	1.8304443359375E-06	2.71203816737398E-06	809436.5	4.69810438517015E-05
2	510	117.657950702942	1.47171020507813	1.47186279296875	1.65008544921875E-06	2.42869941757817E-06	891991.875	4.71562998427544E-05
2	511	117.758658702688	1.46163940429688	1.461181640625	1.5069580078125E-06	2.20193919631129E-06	969623.375	4.73152722406667E-05
2	512	117.859366702434	1.45156860351563	1.451416015625	1.3916015625E-06	2.01979264602414E-06	1042982.5	4.74612243124284E-05
2	513	117.960074702179	1.44149780273438	1.44134521484375	1.29852294921875E-06	1.87161970188754E-06	1109988.375	4.75966844533104E-05
2	514	118.060782701925	1.43142700195313	1.43157958984375	1.221923828125E-06	1.74928106844163E-06	1171578.5	4.77235989819746E-05
2	515	118.161490701671	1.42135620117188	1.42120361328125	1.158447265625E-06	1.64638947808271E-06	1226817.75	4.78434594697319E-05
2	516	118.262198701417	1.41128540039063	1.4117431640625	1.10595703125E-06	1.56132728079683E-06	1276490	4.79574810015038E-05
2	517	118.362906701162	1.40121459960938	1.4013671875	1.06170654296875E-06	1.48784067732777E-06	1319919.625	4.80666312796529E-05
2	518	118.463614700908	1.39114379882813	1.3916015625	1.02325439453125E-06	1.42396243063558E-06	1359976.125	4.81716197100468E-05
2	519	118.564322700654	1.38107299804688	1.38092041015625	9.9029541015625E-07	1.36751907575672E-06	1394453.125	4.82730101794004E-05
2	520	118.6650307004	1.37100219726563	1.37054443359375	9.6099853515625E-07	1.31709111883538E-06	1426167.125	4.83712647110224E-05
2	521	118.765738700145	1.36093139648438	1.3604736328125	9.3536376953125E-07	1.27253770187963E-06	1454486.125	4.84667543787509E-05
2	522	118.866446699891	1.35086059570313	1.35101318359375	9.1217041015625E-07	1.23235417959222E-06	1481097.375	4.85597847728059E-05
2	523	118.967154699637	1.34078979492188	1.34063720703125	8.92333984375E-07	1.19629612527206E-06	1502394	4.86506469314918E-05
2	524	119.067862699383	1.33071899414063	1.33056640625	8.73413085937499E-07	1.16213402634457E-06	1523410.25	4.87395591335371E-05
2	525	119.168570699128	1.32064819335938	1.32080078125	8.5601806640625E-07	1.13062935724884E-06	1542959	4.88266450702213E-05
2	526	119.269278698874	1.31057739257813	1.31072998046875	8.404541015625E-07	1.1016084044968E-06	1559549.75	4.89120684505906E-05
2	527	119.36998669862	1.30050659179688	1.3006591796875	8.258056640625E-07	1.0740917559815E-06	1575018.5	4.89959711558186E-05
2	528	119.470694698365	1.29043579101563	1.28997802734375	8.12683105468751E-07	1.04834327885328E-06	1587307.625	4.90784768771846E-05
2	529	119.571402698111	1.28036499023438	1.28021240234375	7.99560546875E-07	1.02360729670181E-06	1601145	4.91596583742648E-05
2	530	119.672110697857	1.27029418945313	1.270751953125	7.87353515625E-07	1.00053102869424E-06	1613953.5	4.92395665787626E-05
2	531	119.772818697603	1.26022338867188	1.26007080078125	7.75146484375E-07	9.76739443103725E-07	1625590.625	4.93182451464236E-05
2	532	119.873526697348	1.25015258789063	1.25030517578125	7.647705078125E-07	9.56196572587942E-07	1634876.25	4.93957850267179E-05
2	533	119.974234697094	1.24008178710938	1.23992919921875	7.54394531249999E-07	9.35395803480787E-07	1643608.375	4.94722808070946E-05
2	534	120.07494269684	1.23001098632813	1.23016357421875	7.4432373046875E-07	9.15639930099132E-07	1652726.625	4.9547747039469E-05
2	535	120.175650696586	1.21994018554688	1.21978759765625	7.34863281250001E-07	8.96377059689257E-07	1659883.75	4.96222310175654E-05
2	536	120.276358696331	1.20986938476563	1.2103271484375	7.2601318359375E-07	8.78713478869031E-07	1667087	4.96957909490447E-05
2	537	120.377066696077	1.19979858398438	1.19964599609375	7.171630859375E-07	8.60341799580056E-07	1672766	4.97684595757164E-05
2	538	120.477774695823	1.18972778320313	1.18988037109375	7.08923339843751E-07	8.4353393958736E-07	1678433.125	4.98402696393896E-05
2	539	120.578482695569	1.17965698242188	1.17950439453125	7.01904296875E-07	8.27899214073113E-07	1680434.75	4.99113120895345E-05
2	540	120.679190695314	1.16958618164063	1.16943359375	6.93664550781251E-07	8.11194638572488E-07	1685877.625	4.99815832881723E-05
2	541	120.77989869506	1.15951538085938	1.15936279296875	6.86035156250001E-07	7.95363632732915E-07	1689946.625	5.00510577694513E-05
2	542	120.880606694806	1.14944458007813	1.1492919921875	6.78405761718751E-07	7.79686274654523E-07	1694107.125	5.01197609992232E-05
2	543	120.981314694552	1.13937377929688	1.1395263671875	6.7108154296875E-07	7.64715082368639E-07	1698044.625	5.01877148053609E-05
2	544	121.082022694297	1.12930297851563	1.1297607421875	6.6375732421875E-07	7.49886964968027E-07	1702069	5.02549301018007E-05
2	545	121.182730694043	1.11923217773438	1.11907958984375	6.56738281249999E-07	7.34942432245589E-07	1703996.25	5.03214214404579E-05
2	546	121.283438693789	1.10916137695313	1.10931396484375	6.49414062500001E-07	7.2040410259433E-07	1708176.75	5.03871924593113E-05
2	547	121.384146693534	1.09909057617188	1.09954833984375	6.4208984375E-07	7.06008847828343E-07	1712452.5	5.04522249684669E-05
2	548	121.48485469328	1.08901977539063	1.0888671875	6.353759765625E-07	6.91840000399679E-07	1713736.875	5.05165480717551E-05
2	549	121.585562693026	1.07894897460938	1.07879638671875	6.2744140625E-07	6.7688154103962E-07	1719358	5.05801363033243E-05
2	550	121.686270692772	1.06887817382813	1.06842041015625	6.207275390625E-07	6.63197965877771E-07	1721239	5.06429860251956E-05
2	551	121.786978692517	1.05880737304688	1.0589599609375	6.134033203125E-07	6.49569528832217E-07	1726368.25	5.07051299791783E-05
2	552	121.887686692263	1.04873657226563	1.048583984375	6.0577392578125E-07	6.35204798982159E-07	1730982.5	5.0766520871548E-05
2	553	121.988394692009	1.03866577148438	1.038818359375	5.98754882812499E-07	6.21997571670363E-07	1734964.375	5.08271732542198E-05
2	554	122.089102691755	1.02859497070313	1.02874755859375	5.908203125E-07	6.07804963692615E-07	1741219	5.08870725752786E-05
2	555	122.1898106915	1.01852416992188	1.01806640625	5.841064453125E-07	5.94659127273189E-07	1742946.75	5.09462370246183E-05
2	556	122.290518691246	1.00845336914063	1.00860595703125	5.76171875000001E-07	5.81130393584317E-07	1750529.625	5.10046593262814E-05
2	557	122.391226690992	0.998382568359375	0.99853515625	5.69763183593749E-07	5.68928555821913E-07	1752544.125	5.10623613081407E-05
2	558	122.491934690738	0.988311767578125	0.98846435546875	5.62438964843751E-07	5.55950862235477E-07	1757460.625	5.11193757120054E-05
2	559	122.592642690483	0.978240966796875	0.97808837890625	5.5572509765625E-07	5.43548253517656E-07	1760022	5.1175677072024E-05
2	560	122.693350690229	0.968170166015625	0.96832275390625	5.4901123046875E-07	5.31620003130229E-07	1763757.75	5.12313054059632E-05
2	561	122.794058689975	0.958099365234375	0.958251953125	5.4229736328125E-07	5.19657476161228E-07	1767023.125	5.12862570758443E-05
2	562	122.894766689721	0.948028564453125	0.9478759765625	5.36499023437501E-07	5.08534526488802E-07	1766780.5	5.13405793753918E-05
2	563	122.995474689466	0.937957763671875	0.938720703125	5.3131103515625E-07	4.9875262675414E-07	1766800.75	5.13943487021606E-05
2	564	123.096182689212	0.927886962890625	0.92803955078125	5.2520751953125E-07	4.87413331029529E-07	1766996	5.14475468662567E-05
2	565	123.196890688958	0.917816162109375	0.91827392578125	5.19714355468751E-07	4.77240121199429E-07	1766882.125	5.15001629537437E-05
2	566	123.297598688703	0.907745361328125	0.9075927734375	5.1422119140625E-07	4.66703454549133E-07	1764985.125	5.1552226068452E-05
2	567	123.398306688449	0.897674560546875	0.89752197265625	5.09033203125001E-07	4.56868491482965E-07	1763189.375	5.16037507622968E-05
2	568	123.499014688195	0.887603759765625	0.8880615234375	5.04150390624999E-07	4.47716530516118E-07	1761501.25	5.16547697770875E-05
2	569	123.599722687941	0.877532958984375	0.87799072265625	4.986572265625E-07	4.37816396470225E-07	1760710	5.17052649229299E-05
2	570	123.700430687686	0.867462158203125	0.8673095703125	4.93469238281249E-07	4.27990556772784E-07	1757575.875	5.17552216479089E-05
2	571	123.801138687432	0.857391357421875	0.858154296875	4.8828125E-07	4.19020636854839E-07	1757500.125	5.18046581419185E-05
2	572	123.901846687178	0.847320556640625	0.84686279296875	4.82788085937499E-07	4.08855271416542E-07	1754108.75	5.18535562150646E-05
2	573	124.002554686924	0.837249755859375	0.83740234375	4.77294921875E-07	3.99687877461474E-07	1754475.75	5.19018976774532E-05
2	574	124.103262686669	0.827178955078125	0.82672119140625	4.7149658203125E-07	3.89796213084992E-07	1753398.125	5.19496752531268E-05
2	575	124.203970686415	0.817108154296875	0.8172607421875	4.6539306640625E-07	3.80347472628273E-07	1756065.625	5.19968489243183E-05
2	576	124.304678686161	0.807037353515625	0.80718994140625	4.58984375E-07	3.70487583722934E-07	1758643.625	5.20433968631551E-05
2	577	124.405386685907	0.796966552734375	0.797119140625	4.5166015625E-07	3.60026945145364E-07	1764864.875	5.20892499480397E-05
2	578	124.506094685652	0.786895751953125	0.78765869140625	4.4525146484375E-07	3.5070618764621E-07	1769019.875	5.21344154549297E-05
2	579	124.606802685398	0.776824951171875	0.77728271484375	4.38232421875E-07	3.40630464279457E-07	1773677	5.21789006597828E-05
2	580	124.707510685144	0.766754150390625	0.76690673828125	4.31213378906251E-07	3.30700459016953E-07	1778485.5	5.22226800967474E-05
2	581	124.80821868489	0.756683349609375	0.75775146484375	4.2388916015625E-07	3.21202634268047E-07	1787617	5.22657392139081E-05
2	582	124.908926684635	0.746612548828125	0.74652099609375	4.17175292968749E-07	3.11430113697497E-07	1789466.125	5.23080889252014E-05
2	583	125.009634684381	0.736541748046875	0.736480712890625	4.1015625E-07	3.02072152180699E-07	1795610.125	5.23497474205215E-05
2	584	125.110342684127	0.726470947265625	0.72637939453125	4.0313720703125E-07	2.92830549142309E-07	1801816.875	5.23907001479529E-05
2	585	125.211050683872	0.716400146484375	0.716339111328125	3.9703369140625E-07	2.84410759832099E-07	1804227.5	5.24309944012202E-05
2	586	125.311758683618	0.706329345703125	0.706298828125	3.9031982421875E-07	2.75682424444312E-07	1809538.75	5.24706410942599E-05
2	587	125.412466683364	0.696258544921875	0.6961669921875	3.84521484375E-07	2.67691177668894E-07	1810476.25	5.25096547789872E-05
2	588	125.51317468311	0.686187744140625	0.686126708984375	3.7841796875E-07	2.59642661148973E-07	1813145.25	5.25480718351901E-05
2	589	125.613882682855	0.676116943359375	0.675994873046875	3.73229980468751E-07	2.52301532555066E-07	1811202	5.2585921366699E-05
2	590	125.714590682601	0.666046142578125	0.666015625	3.680419921875E-07	2.45121697162176E-07	1809618.625	5.26232470292598E-05
2	591	125.815298682347	0.655975341796875	0.655914306640625	3.6285400390625E-07	2.38001121033449E-07	1807653.5	5.26600524608511E-05
2	592	125.916006682093	0.645904541015625	0.6458740234375	3.57971191406251E-07	2.31204282385988E-07	1804262.625	5.26963485754095E-05
2	593	126.016714681838	0.635833740234375	0.63580322265625	3.5400390625E-07	2.25076817628178E-07	1796034.5	5.27321972185746E-05
2	594	126.117422681584	0.625762939453125	0.625701904296875	3.50036621093749E-07	2.19018573943686E-07	1787532.75	5.27676493220497E-05
2	595	126.21813068133	0.615692138671875	0.6156005859375	3.466796875E-07	2.13416214478457E-07	1775704.25	5.28027339896653E-05
2	596	126.318838681076	0.605621337890625	0.605560302734375	3.42712402343751E-07	2.07533020102346E-07	1766963.625	5.28374475834426E-05
2	597	126.419546680821	0.595550537109375	0.5955810546875	3.3905029296875E-07	2.01931925403187E-07	1756615.75	5.28717755514663E-05
2	598	126.520254680567	0.585479736328125	0.585479736328125	3.3599853515625E-07	1.96720321810062E-07	1742506.875	5.29057651874609E-05
2	599	126.620962680313	0.575408935546875	0.57537841796875	3.33251953124999E-07	1.91745968436408E-07	1726556.875	5.29394674231298E-05
2	600	126.721670680059	0.565338134765625	0.56536865234375	3.314208984375E-07	1.87374979532251E-07	1705893.25	5.29729368281551E-05
2	601	126.822378679804	0.555267333984375	0.555206298828125	3.28674316406249E-07	1.8248204014526E-07	1689229.375	5.30061734025367E-05
2	602	126.92308667955	0.545196533203125	0.545135498046875	3.25927734375001E-07	1.77674763790492E-07	1672565.625	5.30391371285077E-05
2	603	127.023794679296	0.535125732421875	0.53509521484375	3.2379150390625E-07	1.73259266489367E-07	1652592	5.30718498339411E-05
2	604	127.124502679041	0.525054931640625	0.52508544921875	3.216552734375E-07	1.68896505670091E-07	1632447.75	5.31043515366036E-05
2	605	127.225210678787	0.514984130859375	0.51495361328125	3.192138671875E-07	1.64380324463309E-07	1613193.125	5.31366240466014E-05
2	606	127.325918678533	0.504913330078125	0.504913330078125	3.1707763671875E-07	1.60096718104796E-07	1592396.625	5.31686637259554E-05
2	607	127.426626678279	0.494842529296875	0.494781494140625	3.155517578125E-07	1.5612916115515E-07	1567988.5	5.32005178683903E-05
2	608	127.527334678024	0.484771728515625	0.484771728515625	3.1280517578125E-07	1.51639099499334E-07	1549756.25	5.32321573700756E-05
2	609	127.62804267777	0.474700927734375	0.474700927734375	3.1097412109375E-07	1.47619701351687E-07	1526496.625	5.3263567679096E-05
2	610	127.728750677516	0.464630126953125	0.464630126953125	3.09143066406251E-07	1.4363716616117E-07	1502961.625	5.32947924511973E-05
2	611	127.829458677262	0.454559326171875	0.454559326171875	3.0670166015625E-07	1.39414098043744E-07	1482089.625	5.33258025825489E-05
2	612	127.930166677007	0.444488525390625	0.44451904296875	3.04260253906249E-07	1.35249479171762E-07	1460983	5.33565689693205E-05
2	613	128.030874676753	0.434417724609375	0.434326171875	3.021240234375E-07	1.31220375010344E-07	1437575.75	5.33871025254484E-05
2	614	128.131582676499	0.424346923828125	0.424346923828125	2.99987792968751E-07	1.27298889651684E-07	1414547.375	5.34174214408267E-05
2	615	128.232290676245	0.414276123046875	0.414215087890625	2.972412109375E-07	1.23121793649261E-07	1393531.875	5.34474929736461E-05
2	616	128.33299867599	0.404205322265625	0.404205322265625	2.95104980468749E-07	1.19283001254189E-07	1369700.125	5.34773207618855E-05
2	617	128.433706675736	0.394134521484375	0.394134521484375	2.9296875E-07	1.15469092065723E-07	1345312.625	5.35069339093752E-05
2	618	128.534414675482	0.384063720703125	0.384063720703125	2.90527343749999E-07	1.11581009321071E-07	1321953.75	5.35363142262213E-05
2	619	128.635122675228	0.373992919921875	0.37396240234375	2.886962890625E-07	1.07961554363101E-07	1295348.875	5.35654799023177E-05
2	620	128.735830674973	0.363922119140625	0.363861083984375	2.86865234375E-07	1.04379090259954E-07	1268404.25	5.3594460041495E-05
2	621	128.836538674719	0.353851318359375	0.3538818359375	2.850341796875E-07	1.00868412289401E-07	1241541.875	5.3623258281732E-05
2	622	128.937246674465	0.343780517578125	0.34375	2.82897949218749E-07	9.7246164898479E-08	1215102.625	5.36518564331345E-05
2	623	129.03795467421	0.333709716796875	0.333740234375	2.81372070312499E-07	9.3905171638653E-08	1186117.25	5.36802690476179E-05
2	624	129.138662673956	0.323638916015625	0.32366943359375	2.7923583984375E-07	9.03800980722735E-08	1159125.75	5.37084997631609E-05
2	625	129.239370673702	0.313568115234375	0.3135986328125	2.777099609375E-07	8.70894609761308E-08	1129230.875	5.37365449417848E-05
2	626	129.340078673448	0.303497314453125	0.303497314453125	2.7496337890625E-07	8.34506508340382E-08	1103773.625	5.37643718416803E-05
2	627	129.440786673193	0.293426513671875	0.29339599609375	2.72521972656251E-07	7.99568482534596E-08	1076595.75	5.37919404450804E-05
2	628	129.541494672939	0.283355712890625	0.2833251953125	2.69775390625E-07	7.64341621106723E-08	1050226.375	5.38192471140064E-05
2	629	129.642202672685	0.273284912109375	0.27325439453125	2.667236328125E-07	7.28834024243952E-08	1024485.1875	5.38462627446279E-05
2	630	129.742910672431	0.263214111328125	0.263153076171875	2.6397705078125E-07	6.94663739864154E-08	996878.5625	5.3872983698966E-05
2	631	129.843618672176	0.253143310546875	0.253173828125	2.606201171875E-07	6.5982192154479E-08	971428.5625	5.38994027010631E-05
2	632	129.944326671922	0.243072509765625	0.243072509765625	2.57263183593751E-07	6.25336014081768E-08	944839.9375	5.39254797331523E-05
2	633	130.045034671668	0.233001708984375	0.2330322265625	2.532958984375E-07	5.902610666908E-08	920000	5.39511856914032E-05
2	634	130.145742671414	0.222930908203125	0.222930908203125	2.4871826171875E-07	5.54469892222187E-08	896319	5.39764660061337E-05
2	635	130.246450671159	0.212860107421875	0.212890625	2.4383544921875E-07	5.19102805185412E-08	873091.375	5.40012661076616E-05
2	636	130.347158670905	0.202789306640625	0.202850341796875	2.38037109375E-07	4.82859086048393E-08	852179.5	5.4025531426305E-05
2	637	130.447866670651	0.192718505859375	0.1927490234375	2.32543945312499E-07	4.48226167293342E-08	828871.4375	5.40492255822755E-05
2	638	130.548574670397	0.182647705078125	0.1826171875	2.24914550781249E-07	4.10732603484121E-08	811940.3125	5.4072261264082E-05
2	639	130.649282670142	0.172576904296875	0.172576904296875	2.16064453125001E-07	3.72877337895261E-08	798728.8125	5.40944674867205E-05
2	640	130.749990669888	0.162506103515625	0.16253662109375	2.05078124999999E-07	3.33327037083109E-08	792559.5	5.41156732651871E-05
2	641	130.850698669634	0.152435302734375	0.1524658203125	1.9073486328125E-07	2.90805459712828E-08	799360.0625	5.41356057510711E-05
2	642	130.951406669379	0.142364501953125	0.1424560546875	1.7242431640625E-07	2.45628868356107E-08	826194.75	5.41538902325556E-05
2	643	131.052114669125	0.132293701171875	0.13232421875	1.47399902343751E-07	1.95045775086555E-08	897722.5625	5.41699955647346E-05
2	644	131.152822668871	0.122222900390625	0.122283935546875	1.13525390624999E-07	1.38823308404312E-08	1077150.5	5.4183132306207E-05
2	645	131.253530668617	0.112152099609375	0.1121826171875	6.7138671875E-08	7.53179207890753E-09	1670909.125	5.41922308912035E-05
2	646	131.354238668362	0.102081298828125	0.10205078125	3.66210937499945E-09	3.73721109614422E-10	27866668	5.41957961104345E-05
2	647	131.454946668108	0.092010498046875	0.092041015625	-8.48388671875006E-08	-7.80865505589645E-09	-1084892.125	5.41917070222553E-05
2	648	131.555654667854	0.081939697265625	0.08203125	-2.0263671875E-07	-1.66225433417821E-08	-404819.28125	5.41772315045819E-05
2	649	131.6563626676	0.071868896484375	0.071929931640625	-3.5980224609375E-07	-2.58805510355842E-08	-199915.1875	5.41489134775475E-05
2	650	131.757070667345	0.061798095703125	0.061859130859375	-5.5816650390625E-07	-3.45276944813122E-08	-110825.5859375	5.41026893188246E-05
2	651	131.857778667091	0.051727294921875	0.0517578125	-8.00476074218751E-07	-4.14308907181749E-08	-64658.7890625	5.40342771273572E-05
2	652	131.958486666837	0.041656494140625	0.0417236328125	-1.07940673828125E-06	-4.50367672044649E-08	-38654.2265625	5.39396169187967E-05
2	653	132.059194666583	0.031585693359375	0.031671142578125	-1.37603759765625E-06	-4.35806839504949E-08	-23016.19140625	5.381597293308E-05
2	654	132.159902666328	0.021514892578125	0.0215850830078125	-1.66168212890625E-06	-3.5867543601853E-08	-12989.8994140625	5.36630141141359E-05
2	655	132.260610666074	0.011444091796875	0.01153564453125	-1.9091796875E-06	-2.2023618484468E-08	-6042.19970703125	5.34832070115954E-05
2	656	132.36131866582	0.001373291015625	0.001446533203125	-2.093505859375E-06	-3.02832581233758E-09	-690.962158203125	5.32816557097249E-05
2	657	132.462026665566	-0.008697509765625	-0.00858154296874999	-2.20184326171875E-06	1.8895212505754E-08	3897.43603515625	5.30653669557068E-05
2	658	132.562734665311	-0.018768310546875	-0.0186279296875	-2.23907470703125E-06	4.17093239946098E-08	8319.4775390625	5.28417476743925E-05
2	659	132.663442665057	-0.028839111328125	-0.0287322998046875	-2.21893310546875E-06	6.37550527926578E-08	12948.7001953125	5.26172698300797E-05
2	660	132.764150664803	-0.038909912109375	-0.03878173828125	-2.15972900390625E-06	8.37580458323828E-08	17956.763671875	5.23967864864971E-05
2	661	132.864858664548	-0.048980712890625	-0.0488555908203125	-2.07855224609375E-06	1.01548891962011E-07	23504.626953125	5.21833717357367E-05
2	662	132.965566664294	-0.059051513671875	-0.058990478515625	-1.988525390625E-06	1.17304061575396E-07	29665.439453125	5.19785789947491E-05
2	663	133.06627466404	-0.069122314453125	-0.06903076171875	-1.8988037109375E-06	1.31075864828745E-07	36354.87109375	5.17828375450335E-05
2	664	133.166982663786	-0.079193115234375	-0.07916259765625	-1.8133544921875E-06	1.43549840458945E-07	43655.3359375	5.15959145559464E-05
2	665	133.267690663531	-0.089263916015625	-0.089202880859375	-1.73614501953125E-06	1.54869141510972E-07	51379.85546875	5.14171842951328E-05
2	666	133.368398663277	-0.099334716796875	-0.09930419921875	-1.666259765625E-06	1.65466587986884E-07	59597.0703125	5.12458573211916E-05
2	667	133.469106663023	-0.109405517578125	-0.10931396484375	-1.6046142578125E-06	1.75406739799655E-07	68124.765625	5.10811551066581E-05
2	668	133.569814662769	-0.119476318359375	-0.11944580078125	-1.55029296875E-06	1.85175977662766E-07	77047.2421875	5.09222954860888E-05
2	669	133.670522662514	-0.129547119140625	-0.129425048828125	-1.50299072265625E-06	1.9452464528058E-07	86111.6796875	5.07685508637223E-05
2	670	133.77123066226	-0.139617919921875	-0.1395263671875	-1.4630126953125E-06	2.04128838277029E-07	95369.21875	5.06192009197548E-05
2	671	133.871938662006	-0.149688720703125	-0.14959716796875	-1.42730712890625E-06	2.1352110479711E-07	104810.78125	5.04736599395983E-05
2	672	133.972646661752	-0.159759521484375	-0.159637451171875	-1.39678955078125E-06	2.22979920749822E-07	114288.8359375	5.03314549860079E-05
2	673	134.073354661497	-0.169830322265625	-0.169677734375	-1.370849609375E-06	2.32602644700819E-07	123775.609375	5.01920949318446E-05
2	674	134.174062661243	-0.179901123046875	-0.179779052734375	-1.34857177734375E-06	2.4244496898973E-07	133310.703125	5.00551614095457E-05
2	675	134.274770660989	-0.189971923828125	-0.189788818359375	-1.329345703125E-06	2.52294938718478E-07	142768.59375	4.9920316087082E-05
2	676	134.375478660735	-0.200042724609375	-0.199859619140625	-1.3134765625E-06	2.62510923221271E-07	152160.78125	4.97872388223186E-05
2	677	134.47618666048	-0.189971923828125	-0.1898193359375	-1.15692138671875E-06	2.19606050677612E-07	164072.8125	4.96628454129677E-05
