Potential - Start -0.2 V, Upper Vertex 1.5 V, Lower Vertex -0.2 V, Stop -0.19 V; Scan - # end cross 5, Rate 0.1 Vps, Step 0.01 V 
Scan	Index	Time (s)	Potential applied (V)	WE(1).Potential (V)	WE(1).Current (A)	WE(1).Power (W)	WE(1).Resistance (Ω)	WE(1).Charge (C)
1	1	66.0022208333604	-0.189971923828125	-0.1898193359375	-1.6754150390625E-07	3.18026174284114E-08	1132969	0
1	2	66.1029288331061	-0.179901123046875	-0.1796875	-1.47705078125E-07	2.65407571475862E-08	1216528.875	-1.58739261735263E-08
1	3	66.2036368328519	-0.169830322265625	-0.169677734375	-1.324462890625E-07	2.24731859788108E-08	1281106	-2.99806686143711E-08
1	4	66.3043448325976	-0.159759521484375	-0.15960693359375	-1.19628906249999E-07	1.90936031430056E-08	1334183.625	-4.26736619374424E-08
1	5	66.4050528323434	-0.149688720703125	-0.1495361328125	-1.09252929687501E-07	1.63372604333745E-08	1368715.125	-5.41987787983089E-08
1	6	66.5057608320891	-0.139617919921875	-0.139404296875	-9.918212890625E-08	1.38264146798406E-08	1405538.5	-6.46943192350591E-08
1	7	66.6064688318348	-0.129547119140625	-0.12939453125	-9.06372070312494E-08	1.17279590483577E-08	1427609.375	-7.42524832730851E-08
1	8	66.7071768315806	-0.119476318359375	-0.11932373046875	-8.11767578124997E-08	9.68631397313402E-09	1469924.875	-8.29040018857086E-08
1	9	66.8078848313263	-0.109405517578125	-0.109283447265625	-7.23266601562494E-08	7.9041067024832E-09	1510970.5	-9.06335131389824E-08
1	10	66.908592831072	-0.099334716796875	-0.099212646484375	-6.28662109374997E-08	6.23712281822009E-09	1578155.5	-9.74410099274792E-08
1	11	67.0093008308178	-0.089263916015625	-0.08917236328125	-5.21850585937497E-08	4.65346516875798E-09	1708772	-1.03234306436661E-07
1	12	67.1100088305635	-0.079193115234375	-0.079132080078125	-4.05883789062506E-08	3.21184279172826E-09	1949624	-1.07905819390908E-07
1	13	67.2107168303093	-0.069122314453125	-0.0689697265625	-2.53295898437506E-08	1.74697478705355E-09	2722891.75	-1.11225048726737E-07
1	14	67.311424830055	-0.059051513671875	-0.0589599609375	-6.103515625E-09	3.59863028265295E-10	9660000	-1.12807832408635E-07
1	15	67.4121328298007	-0.048980712890625	-0.048797607421875	1.89208984374994E-08	-9.23294607435565E-10	-2579032.25	-1.12162425125462E-07
1	16	67.5128408295465	-0.038909912109375	-0.038726806640625	5.31005859375003E-08	-2.05641614847707E-09	-729310.375	-1.08535857634706E-07
1	17	67.6135488292922	-0.028839111328125	-0.0286590576171875	1.00097656250001E-07	-2.86870438515052E-09	-286310.96875	-1.00821715420807E-07
1	18	67.7142568290379	-0.018768310546875	-0.0186065673828125	1.6510009765625E-07	-3.0719460308859E-09	-112698.7109375	-8.74679457751881E-08
1	19	67.8149648287837	-0.008697509765625	-0.0085418701171875	2.54211425781251E-07	-2.17144080494336E-09	-33601.44140625	-6.63539339029739E-08
1	20	67.9156728285294	0.001373291015625	0.001507568359375	3.7384033203125E-07	5.63589841462431E-10	4032.6533203125	-3.47290196600625E-08
1	21	68.0163808282751	0.011444091796875	0.01158447265625	5.2947998046875E-07	6.13374639968356E-09	21878.962890625	1.07567714735524E-08
1	22	68.1170888280209	0.021514892578125	0.0216705322265625	7.232666015625E-07	1.56735708856104E-08	29962.025390625	7.38375689479653E-08
1	23	68.2177968277666	0.031585693359375	0.031719970703125	9.53369140625E-07	3.0240840942497E-08	33271.44921875	1.58262878358073E-07
1	24	68.3185048275124	0.041656494140625	0.04178466796875	1.20941162109375E-06	5.05348616286483E-08	34549.58203125	2.67167536094348E-07
1	25	68.4192128272581	0.051727294921875	0.0518798828125	1.4678955078125E-06	7.61542437999196E-08	35343.03515625	4.01980656761225E-07
1	26	68.5199208270038	0.061798095703125	0.06182861328125	1.7095947265625E-06	1.05701872143982E-07	36165.65625	5.61980016300367E-07
1	27	68.6206288267496	0.071868896484375	0.071990966796875	1.9097900390625E-06	1.37487617735133E-07	37695.75	7.44230476357188E-07
1	28	68.7213368264953	0.081939697265625	0.08203125	2.0513916015625E-06	1.68278205592287E-07	39988.1015625	9.43691816246428E-07
1	29	68.822044826241	0.092010498046875	0.0921630859375	2.127685546875E-06	1.96094063653618E-07	43316.12109375	1.15412501600076E-06
1	30	68.9227528259868	0.102081298828125	0.10211181640625	2.14202880859375E-06	2.18726441403305E-07	47670.609375	1.36912228754227E-06
1	31	69.0234608257325	0.112152099609375	0.11224365234375	2.1075439453125E-06	2.36558420851907E-07	53258.0390625	1.58310524511762E-06
1	32	69.1241688254783	0.122222900390625	0.122344970703125	2.04071044921875E-06	2.49670648599931E-07	59952.1484375	1.79198639216338E-06
1	33	69.224876825224	0.132293701171875	0.13232421875	1.9586181640625E-06	2.59172622918413E-07	67559.984375	1.99336864170618E-06
1	34	69.3255848249697	0.142364501953125	0.142486572265625	1.87225341796875E-06	2.66770967982666E-07	76104.3203125	2.18626837522606E-06
1	35	69.4262928247155	0.152435302734375	0.15252685546875	1.785888671875E-06	2.72395965339456E-07	85406.703125	2.37047038353921E-06
1	36	69.5270008244612	0.162506103515625	0.162628173828125	1.70623779296875E-06	2.7748234288083E-07	95313.8984375	2.54631299867469E-06
1	37	69.6277088242069	0.172576904296875	0.172607421875	1.63238525390625E-06	2.81761799669766E-07	105739.390625	2.71442604571348E-06
1	38	69.7284168239527	0.182647705078125	0.182708740234375	1.56524658203125E-06	2.85984214087875E-07	116728.4140625	2.87543957711023E-06
1	39	69.8291248236984	0.192718505859375	0.192779541015625	1.505126953125E-06	2.90157657900636E-07	128081.921875	3.03004503621196E-06
1	40	69.9298328234441	0.202789306640625	0.202880859375	1.451416015625E-06	2.94464513217463E-07	139781.328125	3.17891885970312E-06
1	41	70.0305408231899	0.212860107421875	0.212921142578125	1.4031982421875E-06	2.98770572726426E-07	151739.890625	3.32266017721849E-06
1	42	70.1312488229356	0.222930908203125	0.2230224609375	1.36016845703125E-06	3.03348116403868E-07	163966.796875	3.46180672750052E-06
1	43	70.2319568226814	0.233001708984375	0.233062744140625	1.32171630859375E-06	3.08042814367582E-07	176333.421875	3.59685031980916E-06
1	44	70.3326648224271	0.243072509765625	0.24310302734375	1.28631591796875E-06	3.12707271632462E-07	188991.703125	3.72817521565594E-06
1	45	70.4333728221728	0.253143310546875	0.253204345703125	1.25518798828125E-06	3.17819058182067E-07	201726.234375	3.85615021514241E-06
1	46	70.5340808219186	0.263214111328125	0.26324462890625	1.2261962890625E-06	3.22789560414094E-07	214683.9375	3.98109750676667E-06
1	47	70.6347888216643	0.273284912109375	0.273284912109375	1.2005615234375E-06	3.28095353552271E-07	227630.90625	4.10329448641278E-06
1	48	70.73549682141	0.283355712890625	0.28338623046875	1.17645263671875E-06	3.33390488549412E-07	240881.96875	4.2229867176502E-06
1	49	70.8362048211558	0.293426513671875	0.293426513671875	1.15447998046875E-06	3.38755029360982E-07	254163.375	4.34035837315605E-06
1	50	70.9369128209015	0.303497314453125	0.303497314453125	1.1346435546875E-06	3.44361268389548E-07	267482.53125	4.45562500317465E-06
1	51	71.0376208206472	0.313568115234375	0.313629150390625	1.11602783203125E-06	3.50018837025345E-07	281022.71875	4.56895531897317E-06
1	52	71.138328820393	0.323638916015625	0.323638916015625	1.099853515625E-06	3.55955393160912E-07	294256.375	4.68053394797607E-06
1	53	71.2390368201387	0.333709716796875	0.33380126953125	1.083984375E-06	3.61835333251292E-07	307939.1875	4.79049867863068E-06
1	54	71.3397448198845	0.343780517578125	0.34381103515625	1.0699462890625E-06	3.67859342986776E-07	321334.84375	4.89895774080651E-06
1	55	71.4404528196302	0.353851318359375	0.3538818359375	1.05712890625E-06	3.74098704014614E-07	334757.5	5.0060643843608E-06
1	56	71.5411608193759	0.363922119140625	0.36395263671875	1.04522705078125E-06	3.80413126777057E-07	348204.40625	5.11192683916306E-06
1	57	71.6418688191217	0.373992919921875	0.374053955078125	1.03485107421875E-06	3.87090125286704E-07	361456.8125	5.21666697750334E-06
1	58	71.7425768188674	0.384063720703125	0.38409423828125	1.025390625E-06	3.93846619317628E-07	374583.34375	5.32040849066107E-06
1	59	71.8432848186131	0.394134521484375	0.3941650390625	1.016845703125E-06	4.00805021172346E-07	387635.0625	5.42324323760113E-06
1	60	71.9439928183589	0.404205322265625	0.404205322265625	1.00921630859375E-06	4.07930571100223E-07	400514.09375	5.52526353203575E-06
1	61	72.0447008181046	0.414276123046875	0.414306640625	1.00311279296875E-06	4.15596275615826E-07	413021	5.62659215574968E-06
1	62	72.1454088178504	0.424346923828125	0.424407958984375	9.9761962890625E-07	4.23397693793959E-07	425420.625	5.72733688386506E-06
1	63	72.2461168175961	0.434417724609375	0.434417724609375	9.92736816406251E-07	4.31262463962412E-07	437596.09375	5.82755956202163E-06
1	64	72.3468248173418	0.444488525390625	0.444580078125	9.8876953125E-07	4.39587239497996E-07	449629.625	5.92733613302698E-06
1	65	72.4475328170876	0.454559326171875	0.45458984375	9.85107421875001E-07	4.47819815008188E-07	461462.21875	6.02672889726819E-06
1	66	72.5482408168333	0.464630126953125	0.46466064453125	9.8236083984375E-07	4.56464391618283E-07	473004.0625	6.12579879089026E-06
1	67	72.648948816579	0.474700927734375	0.47467041015625	9.796142578125E-07	4.64993888726895E-07	484548.28125	6.22459219812299E-06
1	68	72.7496568163248	0.484771728515625	0.484771728515625	9.7808837890625E-07	4.74149572937677E-07	495631.84375	6.3231700551114E-06
1	69	72.8503648160705	0.494842529296875	0.494873046875	9.771728515625E-07	4.83576513943262E-07	506433.5	6.42162558506243E-06
1	70	72.9510728158162	0.504913330078125	0.504913330078125	9.75952148437501E-07	4.92771278004511E-07	517354.59375	6.51997288514394E-06
1	71	73.051780815562	0.514984130859375	0.515045166015625	9.7564697265625E-07	5.02502246035874E-07	527901.1875	6.61824378767051E-06
1	72	73.1524888153077	0.525054931640625	0.525054931640625	9.75952148437501E-07	5.12428471211024E-07	537992.5	6.71651469019707E-06
1	73	73.2531968150535	0.535125732421875	0.53515625	9.771728515625E-07	5.22940126757021E-07	547657.75	6.81486244502594E-06
1	74	73.3539048147992	0.545196533203125	0.545166015625	9.7808837890625E-07	5.33220543275092E-07	557379.125	6.91331752022961E-06
1	75	73.4546128145449	0.555267333984375	0.5552978515625	9.796142578125E-07	5.4397770554715E-07	566853.5625	7.01189583196538E-06
1	76	73.5553208142907	0.565338134765625	0.565338134765625	9.814453125E-07	5.5484844097009E-07	576026.125	7.11064285496832E-06
1	77	73.6560288140364	0.575408935546875	0.575408935546875	9.8388671875E-07	5.66137202895334E-07	584832.5	7.20960542821558E-06
1	78	73.7567368137821	0.585479736328125	0.5855712890625	9.86633300781251E-07	5.77744117435941E-07	593504.5	7.3088285716949E-06
1	79	73.8574448135279	0.595550537109375	0.595611572265625	9.89990234375E-07	5.89649630455824E-07	601633.8125	7.40835957913077E-06
1	80	73.9581528132736	0.605621337890625	0.60565185546875	9.9334716796875E-07	6.01622559770476E-07	609708.125	7.50822846384835E-06
1	81	74.0588608130194	0.615692138671875	0.61566162109375	9.97314453125001E-07	6.14008172306058E-07	617319.5	7.60846660341485E-06
1	82	74.1595688127651	0.625762939453125	0.625732421875	1.00189208984375E-06	6.26916346391226E-07	624550.6875	7.70913447922794E-06
1	83	74.2602768125108	0.635833740234375	0.63580322265625	1.00677490234375E-06	6.40110670246941E-07	631524.75	7.81027847551741E-06
1	84	74.3609848122566	0.645904541015625	0.6458740234375	1.01226806640625E-06	6.53797656013921E-07	638046.4375	7.91194543126039E-06
1	85	74.4616928120023	0.655975341796875	0.655914306640625	1.01898193359375E-06	6.68364862121962E-07	643695.6875	8.01422720542178E-06
1	86	74.562400811748	0.666046142578125	0.666015625	1.026611328125E-06	6.83739187934407E-07	648751.4375	8.11723111837637E-06
1	87	74.6631088114938	0.676116943359375	0.67608642578125	1.03546142578125E-06	7.00061434599775E-07	652932.5	8.22106449049897E-06
1	88	74.7638168112395	0.686187744140625	0.6861572265625	1.046142578125E-06	7.17818238626933E-07	655892.6875	8.3258819358889E-06
1	89	74.8645248109852	0.696258544921875	0.6961669921875	1.05682373046875E-06	7.3572579140091E-07	658735.1875	8.43177440401632E-06
1	90	74.965232810731	0.706329345703125	0.706268310546875	1.0687255859375E-06	7.54806933400687E-07	660851	8.53880465001566E-06
1	91	75.0659408104767	0.716400146484375	0.716339111328125	1.07879638671875E-06	7.72784005675931E-07	664017	8.64694084157236E-06
1	92	75.1666488102225	0.726470947265625	0.726470947265625	1.08856201171875E-06	7.90808599049342E-07	667367.5625	8.7560756583116E-06
1	93	75.2673568099682	0.736541748046875	0.736480712890625	1.09527587890625E-06	8.06649495643796E-07	672415.75	8.86604084371356E-06
1	94	75.3680648097139	0.746612548828125	0.74658203125	1.09893798828125E-06	8.20447382920975E-07	679366.8125	8.97652807907434E-06
1	95	75.4687728094597	0.756683349609375	0.75714111328125	1.10015869140625E-06	8.32975388220802E-07	688210.8125	9.0872617874993E-06
1	96	75.5694808092054	0.766754150390625	0.76690673828125	1.09954833984375E-06	8.43250973048271E-07	697474.375	9.19802550924942E-06
1	97	75.6701888089511	0.776824951171875	0.7763671875	1.09771728515625E-06	8.5223166479409E-07	707256.0625	9.3086664492148E-06
1	98	75.7708968086969	0.786895751953125	0.787353515625	1.0943603515625E-06	8.6164840240599E-07	719464.625	9.41904636420077E-06
1	99	75.8716048084426	0.796966552734375	0.79681396484375	1.09222412109375E-06	8.70299459165835E-07	729533.375	9.5291497927974E-06
1	100	75.9723128081883	0.807037353515625	0.80718994140625	1.0888671875E-06	8.78922662650439E-07	741311.6875	9.63897673500469E-06
1	101	76.0730208079341	0.817108154296875	0.8172607421875	1.0870361328125E-06	8.88391980424785E-07	751824.8125	9.74854174273787E-06
1	102	76.1737288076798	0.827178955078125	0.82794189453125	1.08551025390625E-06	8.98739415333694E-07	762721.4375	9.85793849395122E-06
1	103	76.2744368074256	0.837249755859375	0.83770751953125	1.08428955078125E-06	9.0831753141174E-07	772586.5	9.96719700196991E-06
1	104	76.3751448071713	0.847320556640625	0.8477783203125	1.083984375E-06	9.18978400932247E-07	782094.625	1.00763782029389E-05
1	105	76.475852806917	0.857391357421875	0.85784912109375	1.0845947265625E-06	9.30418650568754E-07	790939.8125	1.01855748653179E-05
1	106	76.5765608066628	0.867462158203125	0.8673095703125	1.085205078125E-06	9.4120878202375E-07	799212.5625	1.02948324638419E-05
1	107	76.6772688064085	0.877532958984375	0.8770751953125	1.0858154296875E-06	9.52341736137896E-07	807757.1875	1.04041519080056E-05
1	108	76.7779768061542	0.887603759765625	0.88775634765625	1.08734130859375E-06	9.65294134402939E-07	816446.8125	1.05135795820388E-05
1	109	76.8786848059	0.897674560546875	0.89813232421875	1.08917236328125E-06	9.78220896286075E-07	824600.75	1.06231755125918E-05
1	110	76.9793928056457	0.907745361328125	0.90789794921875	1.0906982421875E-06	9.90242710940947E-07	832400.6875	1.07329406091594E-05
1	111	77.0801008053915	0.917816162109375	0.91796875	1.09222412109375E-06	1.0026276413555E-06	840458.25	1.08428594103316E-05
1	112	77.1808088051372	0.927886962890625	0.92803955078125	1.0931396484375E-06	1.01447687939071E-06	848967.0625	1.09529009932885E-05
1	113	77.2815168048829	0.937957763671875	0.93841552734375	1.09405517578125E-06	1.02667831924919E-06	857740.625	1.1063035344705E-05
1	114	77.3822248046287	0.948028564453125	0.9478759765625	1.09527587890625E-06	1.03818558727653E-06	865422.1875	1.11732770164963E-05
1	115	77.4829328043744	0.958099365234375	0.958251953125	1.09588623046875E-06	1.05013509710261E-06	874408.25	1.12836105472525E-05
1	116	77.5836408041201	0.968170166015625	0.96771240234375	1.09619140625E-06	1.06079789929936E-06	882795.125	1.13939904622384E-05
1	117	77.6843488038659	0.978240966796875	0.9783935546875	1.09710693359375E-06	1.07340224531072E-06	891794.1875	1.15044322228641E-05
1	118	77.7850568036116	0.988311767578125	0.98846435546875	1.09771728515625E-06	1.08505435036932E-06	900472.625	1.16149503810448E-05
1	119	77.8857648033573	0.998382568359375	0.99822998046875	1.09832763671875E-06	1.09638358480879E-06	908863.5625	1.17255294753704E-05
1	120	77.9864728031031	1.00845336914063	1.00830078125	1.10015869140625E-06	1.10929079255584E-06	916504.875	1.18362322609755E-05
1	121	78.0871808028488	1.01852416992188	1.01837158203125	1.10137939453125E-06	1.12161342258332E-06	924632.9375	1.19470887511852E-05
1	122	78.1878888025946	1.02859497070313	1.02874755859375	1.102294921875E-06	1.13398311896162E-06	933278	1.20580525617697E-05
1	123	78.2885968023403	1.03866577148438	1.038818359375	1.104736328125E-06	1.14762030989368E-06	940331.5625	1.21691855383688E-05
1	124	78.389304802086	1.04873657226563	1.04888916015625	1.10687255859375E-06	1.16098658509145E-06	947615.125	1.22805486171274E-05
1	125	78.4900128018318	1.05880737304688	1.0589599609375	1.10931396484375E-06	1.17471904559352E-06	954607.9375	1.23921427075402E-05
1	126	78.5907208015775	1.06887817382813	1.06903076171875	1.11297607421875E-06	1.18980563001969E-06	960515.5	1.25040432976675E-05
1	127	78.6914288013232	1.07894897460938	1.07879638671875	1.1163330078125E-06	1.20429604066885E-06	966375.0625	1.26162985907285E-05
1	128	78.792136801069	1.08901977539063	1.0888671875	1.12030029296875E-06	1.21985817713721E-06	971942.3125	1.27289213196491E-05
1	129	78.8928448008147	1.09909057617188	1.0992431640625	1.1248779296875E-06	1.23651443573181E-06	977211.0625	1.28419751490583E-05
1	130	78.9935528005605	1.10916137695313	1.10931396484375	1.13006591796875E-06	1.25359792946256E-06	981636.5	1.29555210151011E-05
1	131	79.0942608003062	1.11923217773438	1.11907958984375	1.13433837890625E-06	1.26941495182109E-06	986548.3125	1.3069542546873E-05
1	132	79.1949688000519	1.12930297851563	1.1297607421875	1.1407470703125E-06	1.28877115912474E-06	990369.1875	1.31841024995083E-05
1	133	79.2956767997977	1.13937377929688	1.13922119140625	1.1468505859375E-06	1.30651642393786E-06	993347.5625	1.32992918224772E-05
1	134	79.3963847995434	1.14944458007813	1.1492919921875	1.153564453125E-06	1.32578236389236E-06	996296.3125	1.34151268866844E-05
1	135	79.4970927992891	1.15951538085938	1.15966796875	1.16119384765625E-06	1.34659933337389E-06	998685.9375	1.35316840896849E-05
1	136	79.5978007990349	1.16958618164063	1.16973876953125	1.168212890625E-06	1.36650385229586E-06	1001306.1875	1.36489788928884E-05
1	137	79.6985087987806	1.17965698242188	1.17950439453125	1.17645263671875E-06	1.38763107315754E-06	1002594	1.3767042219115E-05
1	138	79.7992167985263	1.18972778320313	1.190185546875	1.185302734375E-06	1.41073019221949E-06	1004119.5	1.38859668368241E-05
1	139	79.8999247982721	1.19979858398438	1.199951171875	1.19384765625E-06	1.4325588608699E-06	1005112.5	1.40057663884363E-05
1	140	80.0006327980178	1.20986938476563	1.21002197265625	1.2030029296875E-06	1.4556599126081E-06	1005834.6875	1.41264572448563E-05
1	141	80.1013407977636	1.21994018554688	1.21978759765625	1.21368408203125E-06	1.48043682202115E-06	1005028.9375	1.42481467264588E-05
1	142	80.2020487975093	1.23001098632813	1.22955322265625	1.2237548828125E-06	1.50467178627878E-06	1004738.125	1.43708821269684E-05
1	143	80.302756797255	1.24008178710938	1.2396240234375	1.23504638671875E-06	1.53099313138227E-06	1003706.4375	1.44946925502154E-05
1	144	80.4034647970008	1.25015258789063	1.25	1.24664306640625E-06	1.55830377934763E-06	1002692.8125	1.46196553032496E-05
1	145	80.5041727967465	1.26022338867188	1.26007080078125	1.26007080078125E-06	1.58777845626901E-06	1000000	1.47458786159405E-05
1	146	80.6048807964922	1.27029418945313	1.27044677734375	1.27410888671875E-06	1.61868752002192E-06	997125.75	1.4873484360578E-05
1	147	80.705588796238	1.28036499023438	1.28021240234375	1.2896728515625E-06	1.65105507221597E-06	992664.5	1.50025807670318E-05
1	148	80.8062967959837	1.29043579101563	1.290283203125	1.30645751953125E-06	1.68570022651693E-06	987619.6875	1.51333069879911E-05
1	149	80.9070047957294	1.30050659179688	1.30035400390625	1.32659912109375E-06	1.72504849160759E-06	980216.25	1.52658922161208E-05
1	150	81.0077127954752	1.31057739257813	1.3104248046875	1.34918212890625E-06	1.76800165263558E-06	971273.5	1.54006283992203E-05
1	151	81.1084207952209	1.32064819335938	1.32080078125	1.37481689453125E-06	1.81585915015603E-06	960710.375	1.55377929331735E-05
1	152	81.2091287949667	1.33071899414063	1.33087158203125	1.40380859375E-06	1.86828901860281E-06	948043.5	1.56777077791048E-05
1	153	81.3098367947124	1.34078979492188	1.34063720703125	1.4373779296875E-06	1.92700235857046E-06	932696.375	1.58207712956937E-05
1	154	81.4105447944581	1.35086059570313	1.3507080078125	1.47491455078125E-06	1.99217879526259E-06	915787.3125	1.59674182214076E-05
1	155	81.5112527942039	1.36093139648438	1.361083984375	1.51611328125E-06	2.06355753107346E-06	897745.625	1.61180287250318E-05
1	156	81.6119607939496	1.37100219726563	1.3714599609375	1.5618896484375E-06	2.14206897908298E-06	878077.4375	1.62730175361503E-05
1	157	81.7126687936953	1.38107299804688	1.3812255859375	1.6119384765625E-06	2.22645053327142E-06	856872.4375	1.64328321261564E-05
1	158	81.8133767934411	1.39114379882813	1.39129638671875	1.66717529296875E-06	2.31953504226112E-06	834523.125	1.65979490702739E-05
1	159	81.9140847931868	1.40121459960938	1.4013671875	1.72943115234375E-06	2.42356804847077E-06	810305.3125	1.67689813679317E-05
1	160	82.0147927929326	1.41128540039063	1.41143798828125	1.79901123046875E-06	2.53919279202819E-06	784563.1875	1.69466529769124E-05
1	161	82.1155007926783	1.42135620117188	1.42120361328125	1.87744140625E-06	2.66822644334752E-06	756989.625	1.71317769854795E-05
1	162	82.216208792424	1.43142700195313	1.43096923828125	1.968994140625E-06	2.81757002085214E-06	726751.375	1.73254611581797E-05
1	163	82.3169167921698	1.44149780273438	1.441650390625	2.0794677734375E-06	2.9978655220475E-06	693278.5625	1.75293171196245E-05
1	164	82.4176247919155	1.45156860351563	1.45172119140625	2.218017578125E-06	3.21994298246864E-06	654512.9375	1.77457131940173E-05
1	165	82.5183327916612	1.46163940429688	1.461181640625	2.38922119140625E-06	3.49108609043469E-06	611572.375	1.79777052835561E-05
1	166	82.619040791407	1.47171020507813	1.4715576171875	2.589111328125E-06	3.81002655558405E-06	568364	1.82283838512376E-05
1	167	82.7197487911527	1.48178100585938	1.48193359375	2.8167724609375E-06	4.17426963394973E-06	526110.5	1.85005919774994E-05
1	168	82.8204567908984	1.49185180664063	1.49169921875	3.07891845703125E-06	4.59282000520034E-06	484488.0625	1.87974637810839E-05
1	169	82.9211647906442	1.50192260742188	1.50177001953125	3.38653564453125E-06	5.08579751112848E-06	443453.1875	1.91230246855412E-05
1	170	83.0218727903899	1.49185180664063	1.49200439453125	2.81280517578125E-06	4.19671778217889E-06	530432.875	1.94351869140519E-05
1	171	83.1225807901357	1.48178100585938	1.48193359375	2.3822021484375E-06	3.53026553057134E-06	622085.5625	1.96967757801758E-05
1	172	83.2232887898814	1.47171020507813	1.4715576171875	2.04559326171875E-06	3.01020827464527E-06	719379.4375	1.99197329493472E-05
1	173	83.3239967896271	1.46163940429688	1.46209716796875	1.7755126953125E-06	2.59597186413885E-06	823478.875	2.01121420104755E-05
1	174	83.4247047893729	1.45156860351563	1.45233154296875	1.56005859375E-06	2.2657222871203E-06	930946.8125	2.02801002160413E-05
1	175	83.5254127891186	1.44149780273438	1.441650390625	1.38671875E-06	1.99916371457221E-06	1039612.6875	2.04284824576462E-05
1	176	83.6261207888643	1.43142700195313	1.4312744140625	1.24664306640625E-06	1.78428831532074E-06	1148102.875	2.05610831471859E-05
1	177	83.7268287886101	1.42135620117188	1.42120361328125	1.1334228515625E-06	1.61082471095142E-06	1253904.125	2.06809290830279E-05
1	178	83.8275367883558	1.41128540039063	1.4111328125	1.041259765625E-06	1.46935587963526E-06	1355216.875	2.07904322451213E-05
1	179	83.9282447881016	1.40121459960938	1.40167236328125	9.66491699218749E-07	1.35470475015609E-06	1450268.375	2.08915316761704E-05
1	180	84.0289527878473	1.39114379882813	1.3916015625	9.0606689453125E-07	1.26088411889214E-06	1535870.75	2.0985822629882E-05
1	181	84.129660787593	1.38107299804688	1.3812255859375	8.5601806640625E-07	1.18235402624123E-06	1613547.25	2.10745492950082E-05
1	182	84.2303687873388	1.37100219726563	1.370849609375	8.15734863281251E-07	1.11824977011565E-06	1680508.875	2.11587303056149E-05
1	183	84.3310767870845	1.36093139648438	1.361083984375	7.830810546875E-07	1.06583900105761E-06	1738113.875	2.12392369576264E-05
1	184	84.4317847868302	1.35086059570313	1.35040283203125	7.57751464843751E-07	1.02326964679378E-06	1782118.5	2.13168241316453E-05
1	185	84.532492786576	1.34078979492188	1.34033203125	7.366943359375E-07	9.87414978226298E-07	1819387	2.13920739042806E-05
1	186	84.6332007863217	1.33071899414063	1.33026123046875	7.20825195312499E-07	9.58885834734247E-07	1845469.875	2.14654664887348E-05
1	187	84.7339087860674	1.32064819335938	1.32080078125	7.07092285156249E-07	9.33928049562383E-07	1867932.625	2.15373675018782E-05
1	188	84.8346167858132	1.31057739257813	1.31103515625	6.9580078125E-07	9.12219206838927E-07	1884210.625	2.16080097743543E-05
1	189	84.9353247855589	1.30050659179688	1.3006591796875	6.854248046875E-07	8.91503987077158E-07	1897595.875	2.16775588341989E-05
1	190	85.0360327853047	1.29043579101563	1.2908935546875	6.744384765625E-07	8.70628298343945E-07	1914027.125	2.17460346902953E-05
1	191	85.1367407850504	1.28036499023438	1.280517578125	6.6497802734375E-07	8.51516062994051E-07	1925654	2.18134791794E-05
1	192	85.2374487847961	1.27029418945313	1.270751953125	6.5643310546875E-07	8.34163643048669E-07	1935843.875	2.18800178117817E-05
1	193	85.3381567845419	1.26022338867188	1.26007080078125	6.47888183593751E-07	8.16384954305249E-07	1944889.375	2.19456942431862E-05
1	194	85.4388647842876	1.25015258789063	1.2506103515625	6.396484375E-07	7.99950953478401E-07	1955152.75	2.20105284824967E-05
1	195	85.5395727840333	1.24008178710938	1.2396240234375	6.317138671875E-07	7.83087671152316E-07	1962318.875	2.20745459955651E-05
1	196	85.6402807837791	1.23001098632813	1.23016357421875	6.243896484375E-07	7.68101415360434E-07	1970185.75	2.21377958951052E-05
1	197	85.7409887835248	1.21994018554688	1.21978759765625	6.17370605468751E-07	7.53060987790377E-07	1975778.625	2.22003236558521E-05
1	198	85.8416967832705	1.20986938476563	1.20941162109375	6.103515625E-07	7.38166249902861E-07	1981500	2.2262143829721E-05
1	199	85.9424047830163	1.19979858398438	1.19964599609375	6.0394287109375E-07	7.24517633443611E-07	1986356.75	2.23232891585212E-05
1	200	86.043112782762	1.18972778320313	1.1895751953125	5.9783935546875E-07	7.11174834577832E-07	1989790.75	2.23838032979984E-05
1	201	86.1438207825078	1.17965698242188	1.1798095703125	5.9173583984375E-07	6.98135636412189E-07	1993811.25	2.24437026190571E-05
1	202	86.2445287822535	1.16958618164063	1.16943359375	5.85327148437501E-07	6.84501230807655E-07	1997914.5	2.25029725697823E-05
1	203	86.3452367819992	1.15951538085938	1.15997314453125	5.79833984375E-07	6.72591852435289E-07	2000526.375	2.25616440729937E-05
1	204	86.445944781745	1.14944458007813	1.1492919921875	5.74645996093751E-07	6.60436000998743E-07	2000000	2.26197753363522E-05
1	205	86.5466527814907	1.13937377929688	1.13922119140625	5.68542480468751E-07	6.47695628686051E-07	2003757.375	2.26773408940062E-05
1	206	86.6473607812364	1.12930297851563	1.12884521484375	5.633544921875E-07	6.35940011761704E-07	2003792	2.27343352889875E-05
1	207	86.7480687809822	1.11923217773438	1.119384765625	5.5755615234375E-07	6.24119820713531E-07	2007663	2.27907785301795E-05
1	208	86.8487767807279	1.10916137695313	1.10931396484375	5.51757812500001E-07	6.12072653893847E-07	2010508.875	2.28466360567836E-05
1	209	86.9494847804737	1.09909057617188	1.09832763671875	5.4656982421875E-07	6.00312716869666E-07	2009491.875	2.29019424295984E-05
1	210	87.0501927802194	1.08901977539063	1.0894775390625	5.4046630859375E-07	5.88825912473112E-07	2015810.25	2.29566776397405E-05
1	211	87.1509007799651	1.07894897460938	1.07940673828125	5.352783203125E-07	5.77783055177861E-07	2016533.625	2.30108471441781E-05
1	212	87.2516087797109	1.06887817382813	1.0687255859375	5.291748046875E-07	5.6554262073405E-07	2019608	2.3064445485943E-05
1	213	87.3523167794566	1.05880737304688	1.05865478515625	5.23681640625E-07	5.54398070562456E-07	2021561.75	2.31174617510987E-05
1	214	87.4530247792023	1.04873657226563	1.04888916015625	5.1849365234375E-07	5.43842361366842E-07	2022954.625	2.3169939595391E-05
1	215	87.5537327789481	1.03866577148438	1.0382080078125	5.126953125E-07	5.32284332166455E-07	2025000.125	2.32218626479153E-05
1	216	87.6544407786938	1.02859497070313	1.029052734375	5.07507324218751E-07	5.22251809798036E-07	2027660.875	2.32732345466502E-05
1	217	87.7551487784395	1.01852416992188	1.01806640625	5.0201416015625E-07	5.11083726451034E-07	2027963.625	2.33240680245217E-05
1	218	87.8558567781853	1.00845336914063	1.00860595703125	4.96826171875001E-07	5.011017947254E-07	2030098.375	2.33743630815297E-05
1	219	87.956564777931	0.998382568359375	0.99822998046875	4.9102783203125E-07	4.9015869763025E-07	2032939.75	2.34241069847485E-05
1	220	88.0572727776768	0.988311767578125	0.9881591796875	4.85839843749999E-07	4.80087123833073E-07	2033919.625	2.34732960961992E-05
1	221	88.1579807774225	0.978240966796875	0.97869873046875	4.8095703125E-07	4.70711995603779E-07	2034898.625	2.35219777096063E-05
1	222	88.2586887771682	0.968170166015625	0.96832275390625	4.7576904296875E-07	4.60697975768198E-07	2035279	2.35701518249698E-05
1	223	88.359396776914	0.958099365234375	0.95855712890625	4.69970703125E-07	4.5049375785311E-07	2039610.375	2.3617774786544E-05
1	224	88.4601047766597	0.948028564453125	0.94818115234375	4.64782714843751E-07	4.40698215697921E-07	2040052.5	2.36648429563502E-05
1	225	88.5608127764054	0.937957763671875	0.9381103515625	4.5928955078125E-07	4.30864275813292E-07	2042525	2.37113727052929E-05
1	226	88.6615207761512	0.927886962890625	0.92742919921875	4.54101562500001E-07	4.21147035467584E-07	2042338.75	2.37573658523615E-05
1	227	88.7622287758969	0.917816162109375	0.91796875	4.4830322265625E-07	4.11528333188471E-07	2047651.5	2.38028060266515E-05
1	228	88.8629367756427	0.907745361328125	0.90789794921875	4.43420410156251E-07	4.02580468517044E-07	2047488	2.38477077800781E-05
1	229	88.9636447753884	0.897674560546875	0.897216796875	4.38232421875E-07	3.93189480973888E-07	2047353.875	2.3892102035461E-05
1	230	89.0643527751341	0.887603759765625	0.887451171875	4.33349609375E-07	3.84576622991517E-07	2047887.25	2.39359906117897E-05
1	231	89.1650607748799	0.877532958984375	0.87738037109375	4.2877197265625E-07	3.7619608406203E-07	2046263.375	2.39794007939054E-05
1	232	89.2657687746256	0.867462158203125	0.867919921875	4.2449951171875E-07	3.68431557262738E-07	2044572.375	2.40223671426065E-05
1	233	89.3664767743713	0.857391357421875	0.8575439453125	4.21142578125E-07	3.61148266847522E-07	2036231.875	2.40649478655541E-05
1	234	89.4671847741171	0.847320556640625	0.84747314453125	4.180908203125E-07	3.54320746964731E-07	2027007.25	2.41072066273773E-05
1	235	89.5678927738628	0.837249755859375	0.83770751953125	4.1534423828125E-07	3.47936975231278E-07	2016899.375	2.41491743508959E-05
1	236	89.6686007736085	0.827178955078125	0.82763671875	4.1229248046875E-07	3.41228400202453E-07	2007401.875	2.41908492171206E-05
1	237	89.7693087733543	0.817108154296875	0.81695556640625	4.09545898437499E-07	3.34580789740357E-07	1994784	2.42322312260512E-05
1	238	89.8700167731	0.807037353515625	0.80718994140625	4.0771484375E-07	3.29103301055511E-07	1979790.5	2.4273384042317E-05
1	239	89.9707247728458	0.796966552734375	0.79742431640625	4.046630859375E-07	3.22688180176556E-07	1970588.375	2.43142912950134E-05
1	240	90.0714327725915	0.786895751953125	0.78704833984375	4.00390624999999E-07	3.15126754912853E-07	1965701.375	2.43548292928608E-05
1	241	90.1721407723372	0.776824951171875	0.77667236328125	3.95812988281249E-07	3.07416996747634E-07	1962220.625	2.4394919819315E-05
1	242	90.272848772083	0.766754150390625	0.76690673828125	3.887939453125E-07	2.98168686185818E-07	1972527.625	2.443442826916E-05
1	243	90.3735567718287	0.756683349609375	0.75653076171875	3.814697265625E-07	2.88593554387262E-07	1983200.125	2.44732145802118E-05
1	244	90.4742647715744	0.746612548828125	0.74652099609375	3.7200927734375E-07	2.77712729257473E-07	2006726.75	2.45111550611909E-05
1	245	90.5749727713202	0.736541748046875	0.73651123046875	3.61022949218751E-07	2.65897426743322E-07	2040067.75	2.45480659941677E-05
1	246	90.6756807710659	0.726470947265625	0.726409912109375	3.4912109375E-07	2.53605008992963E-07	2080681.875	2.4583825506852E-05
1	247	90.7763887708116	0.716400146484375	0.71636962890625	3.36608886718751E-07	2.41136376644135E-07	2128196	2.46183535637101E-05
1	248	90.8770967705574	0.706329345703125	0.70623779296875	3.253173828125E-07	2.2975143565418E-07	2170919.25	2.46516847255407E-05
1	249	90.9778047703031	0.696258544921875	0.696258544921875	3.16162109375E-07	2.20130559114295E-07	2202220.25	2.46839863393689E-05
1	250	91.0785127700489	0.686187744140625	0.6861572265625	3.10668945312501E-07	2.13167723472907E-07	2208644.5	2.47155494434992E-05
1	251	91.1792207697946	0.676116943359375	0.676116943359375	3.0670166015625E-07	2.0736618466799E-07	2204477.75	2.47466359724058E-05
1	252	91.2799287695403	0.666046142578125	0.666015625	3.0517578125E-07	2.03251829589135E-07	2182400	2.4777446014923E-05
1	253	91.3806367692861	0.655975341796875	0.65594482421875	3.0517578125E-07	2.00178476461588E-07	2149400	2.48081796598854E-05
1	254	91.4813447690318	0.645904541015625	0.6458740234375	3.06396484375E-07	1.97893527342785E-07	2107968	2.48389751504874E-05
1	255	91.5820527687775	0.635833740234375	0.635772705078125	3.08837890624999E-07	1.9635069747892E-07	2058596.875	2.48699543590192E-05
1	256	91.6827607685233	0.625762939453125	0.625732421875	3.1097412109375E-07	1.94586590396284E-07	2012168.875	2.49011645792052E-05
1	257	91.783468768269	0.615692138671875	0.615692138671875	3.13415527343749E-07	1.92967462453453E-07	1964459.625	2.49326058110455E-05
1	258	91.8841767680148	0.605621337890625	0.60565185546875	3.16467285156249E-07	1.91668988236415E-07	1913789.875	2.49643217102857E-05
1	259	91.9848847677605	0.595550537109375	0.595550537109375	3.18603515625E-07	1.89744483236609E-07	1869253	2.49963013629895E-05
1	260	92.0855927675062	0.585479736328125	0.585479736328125	3.204345703125E-07	1.87607952284452E-07	1827142.875	2.50284792855382E-05
1	261	92.186300767252	0.575408935546875	0.575408935546875	3.22570800781249E-07	1.85610119274315E-07	1783822.125	2.50608572969213E-05
1	262	92.2870087669977	0.565338134765625	0.565338134765625	3.253173828125E-07	1.83914323770296E-07	1737804.875	2.50934808718739E-05
1	263	92.3877167667434	0.555267333984375	0.555267333984375	3.265380859375E-07	1.8131592582904E-07	1700467.375	2.51263045356609E-05
1	264	92.4884247664892	0.545196533203125	0.545135498046875	3.28674316406249E-07	1.7917203365414E-07	1658588.75	2.51592973654624E-05
1	265	92.5891327662349	0.535125732421875	0.535186767578125	3.30505371093751E-07	1.76882096525333E-07	1619298.25	2.51924884651089E-05
1	266	92.6898407659806	0.525054931640625	0.525054931640625	3.32031250000001E-07	1.74334644498231E-07	1581341.875	2.52258505497593E-05
1	267	92.7905487657264	0.514984130859375	0.5150146484375	3.33557128906251E-07	1.71786808778052E-07	1544007.375	2.52593654295197E-05
1	268	92.8912567654721	0.504913330078125	0.50494384765625	3.34777832031249E-07	1.69044014342035E-07	1508295.375	2.52930185524747E-05
1	269	92.9919647652179	0.494842529296875	0.494873046875	3.3538818359375E-07	1.65974569199534E-07	1475523.25	2.53267644438893E-05
1	270	93.0926727649636	0.484771728515625	0.48480224609375	3.369140625E-07	1.63336679293025E-07	1438949.375	2.53606176556787E-05
1	271	93.1933807647093	0.474700927734375	0.4747314453125	3.375244140625E-07	1.60233440738011E-07	1406510	2.53945781878429E-05
1	272	93.2940887644551	0.464630126953125	0.464630126953125	3.37829589843749E-07	1.56965811015652E-07	1375338.75	2.54285841947421E-05
1	273	93.3947967642008	0.454559326171875	0.454620361328125	3.38134765625001E-07	1.53722950813062E-07	1344494.625	2.54626229434507E-05
1	274	93.4955047639465	0.444488525390625	0.44451904296875	3.3843994140625E-07	1.50443000279665E-07	1313435.5	2.54966907959897E-05
1	275	93.5962127636923	0.434417724609375	0.43438720703125	3.3843994140625E-07	1.47013977880306E-07	1283498.625	2.55307750194333E-05
1	276	93.696920763438	0.424346923828125	0.42437744140625	3.3843994140625E-07	1.43626280646458E-07	1253922.375	2.55648574238876E-05
1	277	93.7976287631838	0.414276123046875	0.414306640625	3.387451171875E-07	1.40344354804256E-07	1223063.125	2.55989561992465E-05
1	278	93.8983367629295	0.404205322265625	0.40423583984375	3.387451171875E-07	1.36932911232179E-07	1193333.375	2.563307134551E-05
1	279	93.9990447626752	0.394134521484375	0.3941650390625	3.39660644531251E-07	1.33882352315595E-07	1160467.25	2.56672319665086E-05
1	280	94.099752762421	0.384063720703125	0.384124755859375	3.399658203125E-07	1.30589285163296E-07	1129892.25	2.57014544331469E-05
1	281	94.2004607621667	0.373992919921875	0.374053955078125	3.40576171875E-07	1.27393860793745E-07	1098297.5	2.57357223745203E-05
1	282	94.3011687619124	0.363922119140625	0.36395263671875	3.4149169921875E-07	1.24286799518813E-07	1065773	2.57700667134486E-05
1	283	94.4018767616582	0.353851318359375	0.353912353515625	3.42407226562499E-07	1.21182139878329E-07	1033600.75	2.58045038208365E-05
1	284	94.5025847614039	0.343780517578125	0.343841552734375	3.42407226562499E-07	1.17733833349121E-07	1004189	2.58389864029596E-05
1	285	94.6032927611496	0.333709716796875	0.333740234375	3.42712402343751E-07	1.14376909721159E-07	973820.1875	2.58734853559872E-05
1	286	94.7040007608954	0.323638916015625	0.32366943359375	3.43017578125E-07	1.1102430619303E-07	943594.3125	2.59080152318347E-05
1	287	94.8047087606411	0.313568115234375	0.31365966796875	3.43017578125E-07	1.07590778952726E-07	914412.8125	2.59425596595975E-05
1	288	94.9054167603869	0.303497314453125	0.303466796875	3.42712402343751E-07	1.04001827594402E-07	885485.375	2.59770877164556E-05
1	289	95.0061247601326	0.293426513671875	0.293426513671875	3.42712402343751E-07	1.00560896498791E-07	856188.8125	2.60116030403879E-05
1	290	95.1068327598783	0.283355712890625	0.283416748046875	3.41796875E-07	9.68709557014336E-08	829196.4375	2.60460692516062E-05
1	291	95.2075407596241	0.273284912109375	0.27325439453125	3.40881347656249E-07	9.31473280729733E-08	801611.5	2.60804463323439E-05
1	292	95.3082487593698	0.263214111328125	0.263275146484375	3.399658203125E-07	8.95045531024152E-08	774416.5	2.61147288256325E-05
1	293	95.4089567591155	0.253143310546875	0.253204345703125	3.387451171875E-07	8.57717310509543E-08	747477.5	2.61489039985463E-05
1	294	95.5096647588613	0.243072509765625	0.243133544921875	3.36303710937499E-07	8.17667142882783E-08	722958.25	2.61828954535304E-05
1	295	95.610372758607	0.233001708984375	0.2330322265625	3.33557128906251E-07	7.77295596776639E-08	698627.625	2.62166267930297E-05
1	296	95.7110807583528	0.222930908203125	0.222930908203125	3.3111572265625E-07	7.38159258162341E-08	673271.9375	2.62500943790656E-05
1	297	95.8117887580985	0.212860107421875	0.212890625	3.265380859375E-07	6.9516893574928E-08	651962.625	2.62832109001465E-05
1	298	95.9124967578442	0.202789306640625	0.202850341796875	3.2073974609375E-07	6.50621672093621E-08	632445.3125	2.63158035522792E-05
1	299	96.01320475759	0.192718505859375	0.192779541015625	3.1280517578125E-07	6.03024332690438E-08	616292.75	2.63477049884386E-05
1	300	96.1139127573357	0.182647705078125	0.182708740234375	3.0242919921875E-07	5.52564571876246E-08	604137.25	2.63786841969704E-05
1	301	96.2146207570814	0.172576904296875	0.172637939453125	2.87475585937499E-07	4.96291931995074E-08	600530.8125	2.64083882939303E-05
1	302	96.3153287568272	0.162506103515625	0.16253662109375	2.667236328125E-07	4.3352354595072E-08	609382.1875	2.64362952293595E-05
1	303	96.4160367565729	0.152435302734375	0.15252685546875	2.3834228515625E-07	3.6353597465677E-08	639948.8125	2.64617265202105E-05
1	304	96.5167447563186	0.142364501953125	0.142486572265625	1.983642578125E-07	2.82642425020185E-08	718307.75	2.648371628311E-05
1	305	96.6174527560644	0.132293701171875	0.13238525390625	1.4190673828125E-07	1.87863591349924E-08	932903.25	2.65008511632914E-05
1	306	96.7181607558101	0.122222900390625	0.122283935546875	6.53076171875003E-08	7.98607224794523E-09	1872429.875	2.65112848865101E-05
1	307	96.8188687555559	0.112152099609375	0.11224365234375	-4.02832031249994E-08	-4.52153336993888E-09	-2786363.75	2.65125454461668E-05
1	308	96.9195767553016	0.102081298828125	0.102203369140625	-1.77917480468751E-07	-1.81837656043626E-08	-574442.5625	2.65015587501694E-05
1	309	97.0202847550473	0.092010498046875	0.092132568359375	-3.55224609375E-07	-3.27277547285121E-08	-259364.25	2.64747122855624E-05
1	310	97.1209927547931	0.081939697265625	0.082061767578125	-5.69763183593749E-07	-4.67557725869483E-08	-144027.84375	2.64281352428952E-05
1	311	97.2217007545388	0.071868896484375	0.071929931640625	-8.1756591796875E-07	-5.88074584584319E-08	-87980.59375	2.6358276954852E-05
1	312	97.3224087542845	0.061798095703125	0.061859130859375	-1.08245849609375E-06	-6.69599344860217E-08	-57146.88671875	2.62626035691937E-05
1	313	97.4231167540303	0.051727294921875	0.051788330078125	-1.3458251953125E-06	-6.96980393399826E-08	-38480.7265625	2.6140329282498E-05
1	314	97.523824753776	0.041656494140625	0.041802978515625	-1.58111572265625E-06	-6.60953460851488E-08	-26438.912109375	2.59929474850651E-05
1	315	97.6245327535217	0.031585693359375	0.0317291259765625	-1.76605224609375E-06	-5.60352901857186E-08	-17966.130859375	2.58244035649113E-05
1	316	97.7252407532675	0.021514892578125	0.021661376953125	-1.8829345703125E-06	-4.07869542584649E-08	-11504.0517578125	2.5640661988291E-05
1	317	97.8259487530132	0.011444091796875	0.0116058349609375	-1.9305419921875E-06	-2.24055494157938E-08	-6011.69775390625	2.54486385529162E-05
1	318	97.926656752759	0.001373291015625	0.00151977539062501	-1.9183349609375E-06	-2.91543811314909E-09	-792.236755371094	2.5254832507926E-05
1	319	98.0273647525047	-0.008697509765625	-0.008544921875	-1.8634033203125E-06	1.59226356544195E-08	4585.6533203125	2.50644061452476E-05
1	320	98.1280727522504	-0.018768310546875	-0.0186065673828125	-1.783447265625E-06	3.31838307943144E-08	10432.9228515625	2.48807737079915E-05
1	321	98.2287807519962	-0.028839111328125	-0.0286712646484375	-1.6925048828125E-06	4.85262532379238E-08	16940.13671875	2.47057450906141E-05
1	322	98.3294887517419	-0.038909912109375	-0.0387298583984375	-1.600341796875E-06	6.19810052171488E-08	24200.9921875	2.45399369305233E-05
1	323	98.4301967514876	-0.048980712890625	-0.0488037109375	-1.5118408203125E-06	7.37834398023551E-08	32280.984375	2.43832255364396E-05
1	324	98.5309047512334	-0.059051513671875	-0.058868408203125	-1.43096923828125E-06	8.4238877207099E-08	41138.8359375	2.42350433836691E-05
1	325	98.6316127509791	-0.069122314453125	-0.069000244140625	-1.3580322265625E-06	9.37045498972111E-08	50808.9921875	2.40946064877789E-05
1	326	98.7323207507249	-0.079193115234375	-0.079132080078125	-1.2921142578125E-06	1.02247689426349E-07	61242.32421875	2.3961161787156E-05
1	327	98.8330287504706	-0.089263916015625	-0.089141845703125	-1.23443603515625E-06	1.10039906076054E-07	72212.609375	2.38339398492826E-05
1	328	98.9337367502163	-0.099334716796875	-0.09918212890625	-1.182861328125E-06	1.17318698755753E-07	83849.328125	2.37122185353655E-05
1	329	99.0344447499621	-0.109405517578125	-0.109283447265625	-1.13677978515625E-06	1.24231206655168E-07	96134.234375	2.35954157687956E-05
1	330	99.1351527497078	-0.119476318359375	-0.119354248046875	-1.0968017578125E-06	1.3090794936943E-07	108820.2578125	2.3482945834985E-05
1	331	99.2358607494535	-0.129547119140625	-0.129364013671875	-1.0614013671875E-06	1.37307139880249E-07	121880.390625	2.33742721320596E-05
1	332	99.3365687491993	-0.139617919921875	-0.13946533203125	-1.02996826171875E-06	1.43644854233571E-07	135407.421875	2.32689635595307E-05
1	333	99.437276748945	-0.149688720703125	-0.149566650390625	-1.00128173828125E-06	1.49758349721196E-07	149375.203125	2.31666817853693E-05
1	334	99.5379847486907	-0.159759521484375	-0.15960693359375	-9.7686767578125E-07	1.55914861466044E-07	163386.4375	2.30670739256311E-05
1	335	99.6386927484365	-0.169830322265625	-0.169647216796875	-9.5428466796875E-07	1.61891719585583E-07	177774.234375	2.2969832571107E-05
1	336	99.7394007481822	-0.179901123046875	-0.17974853515625	-9.34753417968751E-07	1.68020562796301E-07	192295.140625	2.28747121582273E-05
1	337	99.840108747928	-0.189971923828125	-0.1898193359375	-9.173583984375E-07	1.7413235298136E-07	206919.5	2.27814507525181E-05
1	338	99.9408167476737	-0.200042724609375	-0.19989013671875	-9.02709960937501E-07	1.80442810915338E-07	221433.40625	2.26898027904099E-05
1	339	100.041524747419	-0.189971923828125	-0.189788818359375	-7.92541503906249E-07	1.50415502275791E-07	239468.625	2.26044394366909E-05
2	340	100.142232747165	-0.179901123046875	-0.1796875	-7.2052001953125E-07	1.29468432419344E-07	249385.859375	2.25282510655234E-05
2	341	100.242940746911	-0.169830322265625	-0.169647216796875	-6.6497802734375E-07	1.12811669339408E-07	255117.03125	2.24584855459398E-05
2	342	100.343648746657	-0.159759521484375	-0.15960693359375	-6.182861328125E-07	9.86827473070662E-08	258144.140625	2.23938677663682E-05
2	343	100.444356746402	-0.149688720703125	-0.1495361328125	-5.780029296875E-07	8.64323226323904E-08	258711.71875	2.23336301132804E-05
2	344	100.545064746148	-0.139617919921875	-0.13946533203125	-5.4290771484375E-07	7.57167981646489E-08	256885.90625	2.22771886910778E-05
2	345	100.645772745894	-0.129547119140625	-0.12939453125	-5.10253906249999E-07	6.602405733247E-08	253588.53125	2.22241578740068E-05
2	346	100.74648074564	-0.119476318359375	-0.119354248046875	-4.803466796875E-07	5.73314160590144E-08	248475.234375	2.21742757275933E-05
2	347	100.847188745385	-0.109405517578125	-0.109222412109375	-4.5196533203125E-07	4.93647434041122E-08	241661.046875	2.21273312490666E-05
2	348	100.947896745131	-0.099334716796875	-0.09918212890625	-4.25109863281251E-07	4.2163300406628E-08	233309.40625	2.20831661863485E-05
2	349	101.048604744877	-0.089263916015625	-0.089141845703125	-3.9825439453125E-07	3.55011309238762E-08	223831.4375	2.20417077798629E-05
2	350	101.149312744623	-0.079193115234375	-0.0791015625	-3.7078857421875E-07	2.93299553533188E-08	213333.34375	2.20029833144508E-05
2	351	101.250020744368	-0.069122314453125	-0.069000244140625	-3.40881347656249E-07	2.35208954535437E-08	202417.1875	2.19671474042116E-05
2	352	101.350728744114	-0.059051513671875	-0.058929443359375	-3.07312011718749E-07	1.81097252749396E-08	191757.703125	2.19345074583543E-05
2	353	101.45143674386	-0.048980712890625	-0.0488006591796875	-2.67333984375E-07	1.30460735547899E-08	182545.671875	2.19055727939121E-05
2	354	101.552144743605	-0.038909912109375	-0.03873291015625	-2.178955078125E-07	8.43972625119704E-09	177759.09375	2.18811383092543E-05
2	355	101.652852743351	-0.028839111328125	-0.028668212890625	-1.54724121093749E-07	4.43566428032227E-09	185286	2.18623754335567E-05
2	356	101.753560743097	-0.018768310546875	-0.0186004638671875	-7.23266601562494E-08	1.34530941942046E-09	257173.015625	2.18509430851554E-05
2	357	101.854268742843	-0.008697509765625	-0.0085418701171875	3.662109375E-08	-3.12812609148949E-10	-233250	2.18491459236247E-05
2	358	101.954976742588	0.001373291015625	0.0015228271484375	1.7730712890625E-07	2.7000812696798E-10	8588.640625	2.18599179788725E-05
2	359	102.055684742334	0.011444091796875	0.011590576171875	3.5675048828125E-07	4.13494349871257E-09	32489.306640625	2.18868099182146E-05
2	360	102.15639274208	0.021514892578125	0.0216522216796875	5.74340820312499E-07	1.24357537600872E-08	37699.2578125	2.1933694370091E-05
2	361	102.257100741826	0.031585693359375	0.031732177734375	8.251953125E-07	2.6185244195176E-08	38454.14453125	2.20041656575631E-05
2	362	102.357808741571	0.041656494140625	0.041796875	1.09619140625E-06	4.58173730066846E-08	38129.17578125	2.21009158849483E-05
2	363	102.458516741317	0.051727294921875	0.0518798828125	1.365966796875E-06	7.08662000192817E-08	37980.33984375	2.22248945647152E-05
2	364	102.559224741063	0.061798095703125	0.0618896484375	1.6107177734375E-06	9.96867512981225E-08	38423.64453125	2.23747829295462E-05
2	365	102.659932740809	0.071868896484375	0.07196044921875	1.80816650390625E-06	1.30116461605212E-07	39797.46875	2.2546937543666E-05
2	366	102.760640740554	0.081939697265625	0.08203125	1.94305419921875E-06	1.59391163379041E-07	42217.68359375	2.27358268602984E-05
2	367	102.8613487403	0.092010498046875	0.09210205078125	2.00836181640625E-06	1.84974226158374E-07	45859.296875	2.29347951972159E-05
2	368	102.962056740046	0.102081298828125	0.1021728515625	2.01446533203125E-06	2.05823667442928E-07	50719.58984375	2.31373614951735E-05
2	369	103.062764739792	0.112152099609375	0.112274169921875	1.9744873046875E-06	2.21683919221505E-07	56862.44140625	2.33382215810707E-05
2	370	103.163472739537	0.122222900390625	0.122283935546875	1.9073486328125E-06	2.33238097280264E-07	64112	2.35336865443969E-05
2	371	103.264180739283	0.132293701171875	0.13232421875	1.826171875E-06	2.41646745280377E-07	72459.8984375	2.37216845562216E-05
2	372	103.364888739029	0.142364501953125	0.142486572265625	1.7413330078125E-06	2.48116577949986E-07	81826.1484375	2.39013224927476E-05
2	373	103.465596738774	0.152435302734375	0.15252685546875	1.658935546875E-06	2.53032226282812E-07	91942.609375	2.40725403273245E-05
2	374	103.56630473852	0.162506103515625	0.162567138671875	1.5826416015625E-06	2.57285506677363E-07	102718.8671875	2.42357655224623E-05
2	375	103.667012738266	0.172576904296875	0.17266845703125	1.51275634765625E-06	2.61205286733457E-07	114141.625	2.43916310864734E-05
2	376	103.767720738012	0.182647705078125	0.182708740234375	1.44989013671875E-06	2.6490758386899E-07	126015.578125	2.45408136834158E-05
2	377	103.868428737757	0.192718505859375	0.192779541015625	1.39373779296875E-06	2.68684118509555E-07	138318.375	2.46840008912841E-05
2	378	103.969136737503	0.202789306640625	0.202850341796875	1.34429931640625E-06	2.72691579539242E-07	150896.703125	2.48218730121152E-05
2	379	104.069844737249	0.212860107421875	0.212921142578125	1.29974365234375E-06	2.7674289526658E-07	163817.796875	2.4955010303529E-05
2	380	104.170552736995	0.222930908203125	0.222991943359375	1.2603759765625E-06	2.81053672779308E-07	176924.9375	2.50839220825583E-05
2	381	104.27126073674	0.233001708984375	0.233062744140625	1.22467041015625E-06	2.85425045376542E-07	190306.5	2.5209054001607E-05
2	382	104.371968736486	0.243072509765625	0.243133544921875	1.19354248046875E-06	2.90190200757934E-07	203707.5	2.53308207902592E-05
2	383	104.472676736232	0.253143310546875	0.253204345703125	1.16424560546875E-06	2.94792016575229E-07	217483.625	2.54495462286286E-05
2	384	104.573384735978	0.263214111328125	0.26324462890625	1.138916015625E-06	2.99813507353974E-07	231136.125	2.55655195360305E-05
2	385	104.674092735723	0.273284912109375	0.27325439453125	1.11572265625E-06	3.04876124346265E-07	244912.484375	2.5679048121674E-05
2	386	104.774800735469	0.283355712890625	0.283355712890625	1.09405517578125E-06	3.10006782910932E-07	258995.8125	2.57903193414677E-05
2	387	104.875508735215	0.293426513671875	0.29345703125	1.0748291015625E-06	3.15416173179983E-07	273026.6875	2.58995314652566E-05
2	388	104.976216734961	0.303497314453125	0.30352783203125	1.05682373046875E-06	3.20775427553599E-07	287207.625	2.60068700299598E-05
2	389	105.076924734706	0.313568115234375	0.313629150390625	1.0406494140625E-06	3.26378000181649E-07	301378.3125	2.61124860116979E-05
2	390	105.177632734452	0.323638916015625	0.323699951171875	1.025390625E-06	3.31918869278525E-07	315684.53125	2.62165194726549E-05
2	391	105.278340734198	0.333709716796875	0.33380126953125	1.01165771484375E-06	3.37692625862474E-07	329954.75	2.63190922851209E-05
2	392	105.379048733943	0.343780517578125	0.34381103515625	9.991455078125E-07	3.43517257306303E-07	344105.0625	2.64203445112798E-05
2	393	105.479756733689	0.353851318359375	0.3538818359375	9.8846435546875E-07	3.4979956353709E-07	358011.75	2.65204289462417E-05
2	394	105.580464733435	0.363922119140625	0.363983154296875	9.771728515625E-07	3.55674444563192E-07	372485.96875	2.66194056166569E-05
2	395	105.681172733181	0.373992919921875	0.3740234375	9.674072265625E-07	3.6183297424941E-07	386624.59375	2.67173236352392E-05
2	396	105.781880732926	0.384063720703125	0.384124755859375	9.5855712890625E-07	3.68205490985929E-07	400732.28125	2.68143030552892E-05
2	397	105.882588732672	0.394134521484375	0.3941650390625	9.5062255859375E-07	3.7470215374924E-07	414638.875	2.6910438464256E-05
2	398	105.983296732418	0.404205322265625	0.40423583984375	9.43603515624999E-07	3.81438354679631E-07	428395.875	2.70058208116097E-05
2	399	106.084004732164	0.414276123046875	0.414276123046875	9.3719482421875E-07	3.8825743331472E-07	442038.4375	2.71005264949054E-05
2	400	106.184712731909	0.424346923828125	0.42437744140625	9.31701660156251E-07	3.95393158214574E-07	455486.40625	2.71946319116978E-05
2	401	106.285420731655	0.434417724609375	0.43450927734375	9.26513671875E-07	4.02578763214478E-07	468972.34375	2.72882007266162E-05
2	402	106.386128731401	0.444488525390625	0.44451904296875	9.22241210937499E-07	4.09953770486027E-07	481998.6875	2.73812929663109E-05
2	403	106.486836731147	0.454559326171875	0.45458984375	9.1827392578125E-07	4.17437973965207E-07	495048.21875	2.74739704764215E-05
2	404	106.587544730892	0.464630126953125	0.46466064453125	9.14306640625E-07	4.24842312440887E-07	508210.96875	2.75662478088634E-05
2	405	106.688252730638	0.474700927734375	0.474761962890625	9.112548828125E-07	4.32629150282082E-07	520998	2.7658172257361E-05
2	406	106.788960730384	0.484771728515625	0.484771728515625	9.08203125E-07	4.40271179513729E-07	533770.1875	2.77497892966494E-05
2	407	106.88966873013	0.494842529296875	0.494842529296875	9.05761718750001E-07	4.48209391379351E-07	546327.5	2.78411298495485E-05
2	408	106.990376729875	0.504913330078125	0.50494384765625	9.033203125E-07	4.56126031167514E-07	558986.5	2.7932224838878E-05
2	409	107.091084729621	0.514984130859375	0.5150146484375	9.0179443359375E-07	4.64437334812828E-07	571099.875	2.80231197393732E-05
2	410	107.191792729367	0.525054931640625	0.52508544921875	9.0057373046875E-07	4.72878156188017E-07	583056.625	2.81138763966737E-05
2	411	107.292500729112	0.535125732421875	0.53515625	8.99353027343749E-07	4.81294364362839E-07	595045.8125	2.82045093626948E-05
2	412	107.393208728858	0.545196533203125	0.545196533203125	8.99658203125001E-07	4.9049049266614E-07	606004.0625	2.82950968539808E-05
2	413	107.493916728604	0.555267333984375	0.555328369140625	8.99658203125001E-07	4.99605732784403E-07	617265.9375	2.8385698897182E-05
2	414	107.59462472835	0.565338134765625	0.56536865234375	9.002685546875E-07	5.08983646341221E-07	628000	2.84763318632031E-05
2	415	107.695332728095	0.575408935546875	0.575408935546875	9.01184082031251E-07	5.18549370553956E-07	638503.1875	2.85670430457685E-05
2	416	107.796040727841	0.585479736328125	0.585479736328125	9.02404785156249E-07	5.28339683114609E-07	648799.5	2.86578615487088E-05
2	417	107.896748727587	0.595550537109375	0.5955810546875	9.04541015625E-07	5.38727476850909E-07	658434.5625	2.87488473986741E-05
2	418	107.997456727333	0.605621337890625	0.6055908203125	9.06982421874999E-07	5.49260221305303E-07	667698.5625	2.88400660792831E-05
2	419	108.098164727078	0.615692138671875	0.615631103515625	9.0972900390625E-07	5.60057458187657E-07	676719.25	2.89315448753769E-05
2	420	108.198872726824	0.625762939453125	0.625762939453125	9.14306640625E-07	5.72139185806009E-07	684412.5625	2.90233911073301E-05
2	421	108.29958072657	0.635833740234375	0.63580322265625	9.17968750000001E-07	5.83647477014893E-07	692619.6875	2.91156538878568E-05
2	422	108.400288726316	0.645904541015625	0.6458740234375	9.24072265625001E-07	5.96834240695898E-07	698943.1875	2.92084077955224E-05
2	423	108.500996726061	0.655975341796875	0.655975341796875	9.3109130859375E-07	6.10772929121595E-07	704523.125	2.93018238153309E-05
2	424	108.601704725807	0.666046142578125	0.666015625	9.3963623046875E-07	6.25812390353531E-07	708801.5625	2.93960220005829E-05
2	425	108.702412725553	0.676116943359375	0.67608642578125	9.4970703125E-07	6.42083989532694E-07	711889.5	2.94911569653777E-05
2	426	108.803120725299	0.686187744140625	0.686187744140625	9.6099853515625E-07	6.59425381854817E-07	714036.25	2.95873687718995E-05
2	427	108.903828725044	0.696258544921875	0.69622802734375	9.7381591796875E-07	6.77997888942627E-07	714948.3125	2.96847956633428E-05
2	428	109.00453672479	0.706329345703125	0.706298828125	9.86633300781251E-07	6.96857910043036E-07	715867.625	2.97835122182732E-05
2	429	109.105244724536	0.716400146484375	0.71636962890625	9.9822998046875E-07	7.15101634796156E-07	717639.875	2.98834565910511E-05
2	430	109.205952724281	0.726470947265625	0.726409912109375	1.00799560546875E-06	7.32217984023009E-07	720647.875	2.99844778055558E-05
2	431	109.306660724027	0.736541748046875	0.736419677734375	1.015625E-06	7.47926264921261E-07	725090.125	3.0086375772953E-05
2	432	109.407368723773	0.746612548828125	0.746551513671875	1.02081298828125E-06	7.62089484851458E-07	731330.375	3.01889194815885E-05
2	433	109.508076723519	0.756683349609375	0.7568359375	1.02264404296875E-06	7.73973738432687E-07	740077.625	3.02918142551789E-05
2	434	109.608784723264	0.766754150390625	0.7666015625	1.02325439453125E-06	7.84428436872986E-07	749179.8125	3.03948345390381E-05
2	435	109.70949272301	0.776824951171875	0.77728271484375	1.02264404296875E-06	7.94883533217217E-07	760071.625	3.04978530039079E-05
2	436	109.810200722756	0.786895751953125	0.78765869140625	1.02081298828125E-06	8.04052206149208E-07	771599.375	3.06007495964877E-05
2	437	109.910908722502	0.796966552734375	0.79681396484375	1.01959228515625E-06	8.12425298590824E-07	781502.625	3.07034933939576E-05
2	438	110.011616722247	0.807037353515625	0.806884765625	1.016845703125E-06	8.20477282559295E-07	793517.4375	3.08060334646143E-05
2	439	110.112324721993	0.817108154296875	0.8172607421875	1.0150146484375E-06	8.29531586532539E-07	805171.375	3.09083479805849E-05
2	440	110.213032721739	0.827178955078125	0.82733154296875	1.0137939453125E-06	8.38743744679959E-07	816074.625	3.10105060634669E-05
2	441	110.313740721485	0.837249755859375	0.83740234375	1.0125732421875E-06	8.47931175940175E-07	827004.25	3.11125404550694E-05
2	442	110.41444872123	0.847320556640625	0.84747314453125	1.011962890625E-06	8.57611325955077E-07	837454.8125	3.12144838972017E-05
2	443	110.515156720976	0.857391357421875	0.8575439453125	1.011962890625E-06	8.67802555148955E-07	847406.5625	3.13163982355036E-05
2	444	110.615864720722	0.867462158203125	0.86700439453125	1.011962890625E-06	8.77376180596912E-07	856755.1875	3.14183089358266E-05
2	445	110.716572720468	0.877532958984375	0.877685546875	1.0125732421875E-06	8.88720876446314E-07	866787.25	3.1520252377959E-05
2	446	110.817280720213	0.887603759765625	0.88775634765625	1.01348876953125E-06	8.9973104877572E-07	875941	3.1622275855625E-05
2	447	110.917988719959	0.897674560546875	0.8978271484375	1.014404296875E-06	9.10759638372838E-07	885078.25	3.17243866447825E-05
2	448	111.018696719705	0.907745361328125	0.9075927734375	1.01531982421875E-06	9.21496848604875E-07	893898.5	3.18265920213889E-05
2	449	111.11940471945	0.917816162109375	0.91766357421875	1.0162353515625E-06	9.32562102207157E-07	903003.0625	3.19288883474655E-05
2	450	111.220112719196	0.927886962890625	0.92742919921875	1.01837158203125E-06	9.44467501540203E-07	910698.25	3.20313374686521E-05
2	451	111.320820718942	0.937957763671875	0.938720703125	1.0205078125E-06	9.57971792558965E-07	919856.5	3.2134004868567E-05
2	452	111.421528718688	0.948028564453125	0.94818115234375	1.0223388671875E-06	9.69362417890807E-07	927462.6875	3.22368687193375E-05
2	453	111.522236718433	0.958099365234375	0.958251953125	1.02447509765625E-06	9.81705284175405E-07	935359	3.23399362969212E-05
2	454	111.622944718179	0.968170166015625	0.96832275390625	1.0272216796875E-06	9.94682068267139E-07	942661.9375	3.2443247619085E-05
2	455	111.723652717925	0.978240966796875	0.977783203125	1.029052734375E-06	1.00619035947602E-06	950178	3.25467881339137E-05
2	456	111.824360717671	0.988311767578125	0.9881591796875	1.031494140625E-06	1.01928037565813E-06	957988.1875	3.26505469274707E-05
2	457	111.925068717416	0.998382568359375	0.99853515625	1.03515625E-06	1.03363981907023E-06	964622.6875	3.27546076732688E-05
2	458	112.025776717162	1.00845336914063	1.0089111328125	1.03790283203125E-06	1.04715172710712E-06	972067	3.28589958371595E-05
2	459	112.126484716908	1.01852416992188	1.01837158203125	1.04095458984375E-06	1.06007848899026E-06	978305.5	3.29636750393547E-05
2	460	112.227192716654	1.02859497070313	1.02874755859375	1.04461669921875E-06	1.07464677512326E-06	984808.6875	3.3068692573579E-05
2	461	112.327900716399	1.03866577148438	1.0382080078125	1.0479736328125E-06	1.08801452824991E-06	990681.5	3.31740629917476E-05
2	462	112.428608716145	1.04873657226563	1.0491943359375	1.0516357421875E-06	1.10337032310781E-06	997678.4375	3.32797862938605E-05
2	463	112.529316715891	1.05880737304688	1.0589599609375	1.05499267578125E-06	1.11719486994843E-06	1003760.5625	3.33858624799177E-05
2	464	112.630024715637	1.06887817382813	1.06903076171875	1.0589599609375E-06	1.13206078822259E-06	1009510.125	3.34923097398132E-05
2	465	112.730732715382	1.07894897460938	1.0791015625	1.063232421875E-06	1.14733575173886E-06	1014925.375	3.35991680913139E-05
2	466	112.831440715128	1.08901977539063	1.0888671875	1.068115234375E-06	1.16303567665454E-06	1019428.5625	3.37064921041019E-05
2	467	112.932148714874	1.09909057617188	1.09893798828125	1.0723876953125E-06	1.17848753689032E-06	1024758.125	3.38142745022196E-05
2	468	113.032856714619	1.10916137695313	1.10931396484375	1.07666015625E-06	1.1943541267101E-06	1030328.8125	3.39224861818366E-05
2	469	113.133564714365	1.11923217773438	1.11907958984375	1.08184814453125E-06	1.21067421332555E-06	1034414.6875	3.40311780746561E-05
2	470	113.234272714111	1.12930297851563	1.129150390625	1.0870361328125E-06	1.22742733310588E-06	1038742.25	3.41403901984449E-05
2	471	113.334980713857	1.13937377929688	1.13922119140625	1.09222412109375E-06	1.24428481740324E-06	1043028.75	3.42501225532033E-05
2	472	113.435688713602	1.14944458007813	1.1492919921875	1.09832763671875E-06	1.26229917896126E-06	1046401.8125	3.43604260706343E-05
2	473	113.536396713348	1.15951538085938	1.15936279296875	1.104736328125E-06	1.280790115743E-06	1049447.625	3.44713589583989E-05
2	474	113.637104713094	1.16958618164063	1.16943359375	1.1114501953125E-06	1.29976717744285E-06	1052169.125	3.45829539583065E-05
2	475	113.73781271284	1.17965698242188	1.17919921875	1.1187744140625E-06	1.31925798996235E-06	1054009.75	3.46952547261026E-05
2	476	113.838520712585	1.18972778320313	1.18988037109375	1.126708984375E-06	1.3406488506007E-06	1056067.125	3.4808323107427E-05
2	477	113.939228712331	1.19979858398438	1.19964599609375	1.13372802734375E-06	1.36007224682544E-06	1058142.625	3.49221445503645E-05
2	478	114.039936712077	1.20986938476563	1.2091064453125	1.142578125E-06	1.38149846407032E-06	1058226.5	3.50367663486395E-05
2	479	114.140644711823	1.21994018554688	1.21978759765625	1.15203857421875E-06	1.40524230118899E-06	1058808	3.51523085555527E-05
2	480	114.241352711568	1.23001098632813	1.23016357421875	1.16180419921875E-06	1.42920919188327E-06	1058839	3.52688221028075E-05
2	481	114.342060711314	1.24008178710938	1.2396240234375	1.1724853515625E-06	1.45344097290945E-06	1057261.875	3.53863615600858E-05
2	482	114.44276871106	1.25015258789063	1.25030517578125	1.18438720703125E-06	1.48084541251592E-06	1055655.75	3.55050397047307E-05
2	483	114.543476710806	1.26022338867188	1.2603759765625	1.19720458984375E-06	1.50892788042256E-06	1052765.75	3.56249620381277E-05
2	484	114.644184710551	1.27029418945313	1.27044677734375	1.21124267578125E-06	1.53881933329103E-06	1048878.875	3.57462376996409E-05
2	485	114.744892710297	1.28036499023438	1.280517578125	1.22711181640625E-06	1.57133820266608E-06	1043521.5625	3.58690194843803E-05
2	486	114.845600710043	1.29043579101563	1.290283203125	1.2451171875E-06	1.60655372383189E-06	1036274.5625	3.59935038432013E-05
2	487	114.946308709788	1.30050659179688	1.30126953125	1.26495361328125E-06	1.64604546171176E-06	1028709.375	3.61198981408961E-05
2	488	115.047016709534	1.31057739257813	1.31072998046875	1.28814697265625E-06	1.68841279446497E-06	1017531.4375	3.62484570359811E-05
2	489	115.14772470928	1.32064819335938	1.3214111328125	1.31500244140625E-06	1.73765886302135E-06	1004873.5	3.63795334124006E-05
2	490	115.248432709026	1.33071899414063	1.33056640625	1.34490966796875E-06	1.78949153450958E-06	989335.1875	3.65134728781413E-05
2	491	115.349140708771	1.34078979492188	1.34063720703125	1.37908935546875E-06	1.84885846010729E-06	972117.75	3.66506355931051E-05
2	492	115.449848708517	1.35086059570313	1.3507080078125	1.4178466796875E-06	1.91509684555058E-06	952647.4375	3.6791472666664E-05
2	493	115.550556708263	1.36093139648438	1.36077880859375	1.4599609375E-06	1.98668385564815E-06	932065.25	3.69363806385081E-05
2	494	115.651264708009	1.37100219726563	1.37054443359375	1.50726318359375E-06	2.06577124117757E-06	909293.375	3.70857924281154E-05
2	495	115.751972707754	1.38107299804688	1.38092041015625	1.5594482421875E-06	2.15347381526954E-06	885518.625	3.724021371454E-05
2	496	115.8526807075	1.39114379882813	1.3909912109375	1.61712646484375E-06	2.2494086806546E-06	860162.375	3.74001683667302E-05
2	497	115.953388707246	1.40121459960938	1.40106201171875	1.68121337890625E-06	2.35548418459075E-06	833363.625	3.75662530132104E-05
2	498	116.054096706992	1.41128540039063	1.4111328125	1.75506591796875E-06	2.47663115260366E-06	804034.0625	3.77392825612333E-05
2	499	116.154804706737	1.42135620117188	1.42120361328125	1.83807373046875E-06	2.61227683040488E-06	773202.75	3.79202137992252E-05
2	500	116.255512706483	1.43142700195313	1.43218994140625	1.93450927734375E-06	2.77058484243753E-06	740337.5625	3.81101781385951E-05
2	501	116.356220706229	1.44149780273438	1.44134521484375	2.04864501953125E-06	2.95280460704817E-06	703560.25	3.83107435482088E-05
2	502	116.456928705975	1.45156860351563	1.451416015625	2.19207763671875E-06	3.18161642098858E-06	662118.9375	3.85242819902487E-05
2	503	116.55763670572	1.46163940429688	1.46148681640625	2.36602783203125E-06	3.45791841027676E-06	617696.375	3.87538020731881E-05
2	504	116.658344705466	1.47171020507813	1.47186279296875	2.569580078125E-06	3.7820691431989E-06	572802.875	3.90023269574158E-05
2	505	116.759052705212	1.48178100585938	1.48162841796875	2.80120849609375E-06	4.15034992329311E-06	528924.75	3.92727706639562E-05
2	506	116.859760704957	1.49185180664063	1.49200439453125	3.067626953125E-06	4.57691294286633E-06	486370.875	3.9568287320435E-05
2	507	116.960468704703	1.50192260742188	1.50177001953125	3.380126953125E-06	5.07617323819431E-06	444294	3.98929587390739E-05
2	508	117.061176704449	1.49185180664063	1.49169921875	2.79571533203125E-06	4.17036653743708E-06	533566.1875	4.0203936805483E-05
2	509	117.161884704195	1.48178100585938	1.48162841796875	2.3583984375E-06	3.4942702313856E-06	628235	4.04634665756021E-05
2	510	117.26259270394	1.47171020507813	1.47186279296875	2.01751708984375E-06	2.96950838674093E-06	729541.6875	4.068381167599E-05
2	511	117.363300703686	1.46163940429688	1.46148681640625	1.74652099609375E-06	2.55251734415651E-06	836798.875	4.08733467338607E-05
2	512	117.464008703432	1.45156860351563	1.45172119140625	1.53076171875E-06	2.22223911805486E-06	948365.25	4.10383690905292E-05
2	513	117.564716703178	1.44149780273438	1.44134521484375	1.35711669921875E-06	1.95607344721793E-06	1062064.375	4.11837863794062E-05
2	514	117.665424702923	1.43142700195313	1.43157958984375	1.21826171875E-06	1.74403851360694E-06	1175100.25	4.13134657719638E-05
2	515	117.766132702669	1.42135620117188	1.42120361328125	1.10565185546875E-06	1.57135627887328E-06	1285398.875	4.14304849982727E-05
2	516	117.866840702415	1.41128540039063	1.41143798828125	1.01470947265625E-06	1.43219949677587E-06	1390977.375	4.15372560382821E-05
2	517	117.967548702161	1.40121459960938	1.40106201171875	9.4146728515625E-07	1.31905403577548E-06	1488168.625	4.16357543144841E-05
2	518	118.068256701906	1.39114379882813	1.39068603515625	8.8165283203125E-07	1.2261021993254E-06	1577362.5	4.1727558709681E-05
2	519	118.168964701652	1.38107299804688	1.380615234375	8.331298828125E-07	1.15023181024299E-06	1657142.875	4.18139024986885E-05
2	520	118.269672701398	1.37100219726563	1.37115478515625	7.94372558593751E-07	1.0892076716118E-06	1726085.375	4.18958552472759E-05
2	521	118.370380701144	1.36093139648438	1.36077880859375	7.6324462890625E-07	1.03860702438396E-06	1782886.875	4.1974286432378E-05
2	522	118.471088700889	1.35086059570313	1.3507080078125	7.37915039062501E-07	9.96707740341662E-07	1830438.5	4.20498763560317E-05
2	523	118.571796700635	1.34078979492188	1.34063720703125	7.18078613281251E-07	9.62682861427311E-07	1866978.375	4.21231925429311E-05
2	524	118.672504700381	1.33071899414063	1.33056640625	7.02514648437499E-07	9.34742388380982E-07	1894005.25	4.21947224822361E-05
2	525	118.773212700126	1.32064819335938	1.3201904296875	6.89697265625E-07	9.10531696263206E-07	1914159.375	4.22648263338488E-05
2	526	118.873920699872	1.31057739257813	1.31072998046875	6.793212890625E-07	8.90406738562888E-07	1929470	4.23337623942643E-05
2	527	118.974628699618	1.30050659179688	1.3006591796875	6.695556640625E-07	8.70863743784867E-07	1942570.625	4.24016834585927E-05
2	528	119.075336699364	1.29043579101563	1.29119873046875	6.60400390625E-07	8.52708126330981E-07	1955175.75	4.24686513724737E-05
2	529	119.176044699109	1.28036499023438	1.280517578125	6.512451171875E-07	8.33930812405015E-07	1966260.625	4.25346988777164E-05
2	530	119.276752698855	1.27029418945313	1.26983642578125	6.43310546875001E-07	8.16899159872264E-07	1973908.875	4.25998841819819E-05
2	531	119.377460698601	1.26022338867188	1.259765625	6.3507080078125E-07	8.0004031133285E-07	1983661.875	4.26642582169734E-05
2	532	119.478168698347	1.25015258789063	1.25030517578125	6.2713623046875E-07	7.84111648499675E-07	1993674	4.27278137067333E-05
2	533	119.578876698092	1.24008178710938	1.23992919921875	6.195068359375E-07	7.68144559515349E-07	2001477.875	4.27905870310497E-05
2	534	119.679584697838	1.23001098632813	1.22955322265625	6.121826171875E-07	7.5271105970387E-07	2008474.625	4.2852607293753E-05
2	535	119.780292697584	1.21994018554688	1.21978759765625	6.0546875E-07	7.38543292300164E-07	2014616.875	4.29139217885677E-05
2	536	119.88100069733	1.20986938476563	1.21002197265625	5.99060058593751E-07	7.24875860669272E-07	2019867.5	4.29745741712395E-05
2	537	119.981708697075	1.19979858398438	1.1993408203125	5.92041015625E-07	7.10058884578757E-07	2025773.375	4.30345498898532E-05
2	538	120.082416696821	1.18972778320313	1.18927001953125	5.8563232421875E-07	6.96474955930171E-07	2030745.125	4.30938525823876E-05
2	539	120.183124696567	1.17965698242188	1.17950439453125	5.79223632812501E-07	6.83196844875056E-07	2036354	4.31525077146944E-05
2	540	120.283832696313	1.16958618164063	1.16943359375	5.7373046875E-07	6.709396984661E-07	2038297.875	4.32105625804979E-05
2	541	120.384540696058	1.15951538085938	1.15966796875	5.66711425781249E-07	6.57197119835473E-07	2046311.25	4.32679880759679E-05
2	542	120.485248695804	1.14944458007813	1.1492919921875	5.615234375E-07	6.45354418793431E-07	2046739.125	4.33247987530194E-05
2	543	120.58595669555	1.13937377929688	1.13983154296875	5.5572509765625E-07	6.33432989616267E-07	2051070.875	4.33810564572923E-05
2	544	120.686664695295	1.12930297851563	1.12945556640625	5.4962158203125E-07	6.20773164428101E-07	2054969.5	4.34367175330408E-05
2	545	120.787372695041	1.11923217773438	1.11907958984375	5.43823242187499E-07	6.08581444794254E-07	2057800.375	4.34917747043073E-05
2	546	120.888080694787	1.10916137695313	1.10931396484375	5.37719726562499E-07	5.96499944549578E-07	2062996.75	4.35462352470495E-05
2	547	120.988788694533	1.09909057617188	1.0992431640625	5.31921386718751E-07	5.84710960538359E-07	2066551.875	4.36000955232885E-05
2	548	121.089496694278	1.08901977539063	1.0894775390625	5.27038574218749E-07	5.74196633351676E-07	2067168.625	4.36534210166428E-05
2	549	121.190204694024	1.07894897460938	1.07879638671875	5.206298828125E-07	5.61653678232688E-07	2072098.375	4.37061753473245E-05
2	550	121.29091269377	1.06887817382813	1.06903076171875	5.1544189453125E-07	5.51023219941271E-07	2074008.5	4.37583439634182E-05
2	551	121.391620693516	1.05880737304688	1.058349609375	5.10253906249999E-07	5.40026974249486E-07	2074162.875	4.38099923485424E-05
2	552	121.492328693261	1.04873657226563	1.04888916015625	5.04150390624999E-07	5.28797841070627E-07	2080508.625	4.3861069570994E-05
2	553	121.593036693007	1.03866577148438	1.03912353515625	4.9896240234375E-07	5.18483545874915E-07	2082568.875	4.39115829067305E-05
2	554	121.693744692753	1.02859497070313	1.02874755859375	4.94384765625E-07	5.08597111092968E-07	2080864.125	4.39616014773492E-05
2	555	121.794452692499	1.01852416992188	1.01776123046875	4.89501953125E-07	4.98196072840074E-07	2079177.125	4.40111434727442E-05
2	556	121.895160692244	1.00845336914063	1.00830078125	4.84619140625001E-07	4.88641830997949E-07	2080604.5	4.40601943410002E-05
2	557	121.99586869199	0.998382568359375	0.99853515625	4.803466796875E-07	4.79643063044932E-07	2078780.25	4.41087831859477E-05
2	558	122.096576691736	0.988311767578125	0.9881591796875	4.7607421875E-07	4.70437100830168E-07	2075641.125	4.4156942749396E-05
2	559	122.197284691482	0.978240966796875	0.97869873046875	4.718017578125E-07	4.61751767488749E-07	2074385.625	4.4204673031345E-05
2	560	122.297992691227	0.968170166015625	0.968017578125	4.6722412109375E-07	4.52281142315769E-07	2071848.5	4.42519558419008E-05
2	561	122.398700690973	0.958099365234375	0.95794677734375	4.63256835937501E-07	4.43775377334532E-07	2067852.5	4.42988093709573E-05
2	562	122.499408690719	0.948028564453125	0.948486328125	4.5928955078125E-07	4.35629857520325E-07	2065116.375	4.43452627223451E-05
2	563	122.600116690464	0.937957763671875	0.9381103515625	4.5501708984375E-07	4.26856217927707E-07	2061703.625	4.43913049821276E-05
2	564	122.70082469021	0.927886962890625	0.9283447265625	4.50744628906249E-07	4.18446376215797E-07	2059580.375	4.44369106844533E-05
2	565	122.801532689956	0.917816162109375	0.91766357421875	4.4677734375E-07	4.09991287142475E-07	2053961.75	4.44821052951738E-05
2	566	122.902240689702	0.907745361328125	0.90789794921875	4.4281005859375E-07	4.0202633044828E-07	2050310.25	4.45268997282255E-05
2	567	123.002948689447	0.897674560546875	0.89752197265625	4.38842773437501E-07	3.93871033566029E-07	2045201.75	4.45712939836085E-05
2	568	123.103656689193	0.887603759765625	0.88775634765625	4.345703125E-07	3.85792532142659E-07	2042837.125	4.46152735094074E-05
2	569	123.204364688939	0.877532958984375	0.8770751953125	4.30908203124999E-07	3.77938874862593E-07	2035410.875	4.46588564955164E-05
2	570	123.305072688685	0.867462158203125	0.867919921875	4.2694091796875E-07	3.70550537809322E-07	2032880.625	4.4702050217893E-05
2	571	123.40578068843	0.857391357421875	0.8575439453125	4.22058105468751E-07	3.61933359727118E-07	2031815	4.47448001068551E-05
2	572	123.506488688176	0.847320556640625	0.84716796875	4.1839599609375E-07	3.54451685780077E-07	2024799.5	4.4787120714318E-05
2	573	123.607196687922	0.837249755859375	0.83740234375	4.1473388671875E-07	3.47299106806531E-07	2019131.75	4.48290738859214E-05
2	574	123.707904687668	0.827178955078125	0.8270263671875	4.1015625E-07	3.39210032507253E-07	2016369.125	4.4870608689962E-05
2	575	123.808612687413	0.817108154296875	0.81695556640625	4.058837890625E-07	3.31589006918875E-07	2012782	4.49116996605881E-05
2	576	123.909320687159	0.807037353515625	0.80718994140625	4.00390624999999E-07	3.23191272855183E-07	2016006.25	4.49522995040752E-05
2	577	124.010028686905	0.796966552734375	0.79681396484375	3.94592285156251E-07	3.14416638502735E-07	2019335	4.49923318228684E-05
2	578	124.110736686651	0.786895751953125	0.78704833984375	3.875732421875E-07	3.05038867054463E-07	2030708.625	4.5031716581434E-05
2	579	124.211444686396	0.776824951171875	0.7769775390625	3.802490234375E-07	2.95444948505974E-07	2043338.75	4.5070377382217E-05
2	580	124.312152686142	0.766754150390625	0.76690673828125	3.71704101562501E-07	2.8506238436421E-07	2063218.5	4.51082414656412E-05
2	581	124.412860685888	0.756683349609375	0.7568359375	3.61328125E-07	2.73466099542929E-07	2094594.625	4.51451523986179E-05
2	582	124.513568685633	0.746612548828125	0.746551513671875	3.4912109375E-07	2.60636880966558E-07	2138374.25	4.51809282822069E-05
2	583	124.614276685379	0.736541748046875	0.736480712890625	3.34777832031249E-07	2.46557419814053E-07	2199908.75	4.52153653895948E-05
2	584	124.714984685125	0.726470947265625	0.7264404296875	3.19824218750001E-07	2.32333235317128E-07	2271374	4.52483254775871E-05
2	585	124.815692684871	0.716400146484375	0.71636962890625	3.0517578125E-07	2.1861865207029E-07	2347400	4.52797976322472E-05
2	586	124.916400684616	0.706329345703125	0.706298828125	2.90527343749999E-07	2.0519911458905E-07	2431092.5	4.53097927675117E-05
2	587	125.017108684362	0.696258544921875	0.69622802734375	2.78320312499999E-07	1.93774397416746E-07	2501535.25	4.53384382126387E-05
2	588	125.117816684108	0.686187744140625	0.686126708984375	2.69165039062499E-07	1.84681326231839E-07	2549093	4.53660068160389E-05
2	589	125.218524683854	0.676116943359375	0.67608642578125	2.62451171875E-07	1.77439659410084E-07	2576046.75	4.53927750641014E-05
2	590	125.319232683599	0.666046142578125	0.666046142578125	2.5909423828125E-07	1.72568718426191E-07	2570671.5	4.54190376331098E-05
2	591	125.419940683345	0.655975341796875	0.655914306640625	2.57263183593751E-07	1.6874258790267E-07	2549585	4.54450382676441E-05
2	592	125.520648683091	0.645904541015625	0.645904541015625	2.56958007812499E-07	1.65970334364829E-07	2513658	4.54709297628142E-05
2	593	125.621356682837	0.635833740234375	0.63580322265625	2.58483886718749E-07	1.64344882591649E-07	2459740.25	4.5496883103624E-05
2	594	125.722064682582	0.625762939453125	0.625762939453125	2.60314941406251E-07	1.62895446464972E-07	2403868.75	4.55230074294377E-05
2	595	125.822772682328	0.615692138671875	0.615692138671875	2.6275634765625E-07	1.61777009566322E-07	2343205.5	4.55493463960011E-05
2	596	125.923480682074	0.605621337890625	0.605621337890625	2.6580810546875E-07	1.60979055863208E-07	2278415.75	4.55759618489537E-05
2	597	126.02418868182	0.595550537109375	0.5955810546875	2.67944335937501E-07	1.595825693812E-07	2222779	4.56028392363805E-05
2	598	126.124896681565	0.585479736328125	0.58551025390625	2.70690917968749E-07	1.5849231260745E-07	2163021.5	4.56299603683874E-05
2	599	126.225604681311	0.575408935546875	0.57537841796875	2.73742675781249E-07	1.57505624542864E-07	2101895.25	4.56573761766776E-05
2	600	126.326312681057	0.565338134765625	0.565338134765625	2.7587890625E-07	1.55964869463787E-07	2049225.625	4.56850502814632E-05
2	601	126.427020680802	0.555267333984375	0.555267333984375	2.789306640625E-07	1.54881078628932E-07	1990700.25	4.57129899587017E-05
2	602	126.527728680548	0.545196533203125	0.545166015625	2.8106689453125E-07	1.53228114641024E-07	1939630.875	4.57411879324354E-05
2	603	126.628436680294	0.535125732421875	0.53515625	2.838134765625E-07	1.51884549381975E-07	1885591.375	4.57696296507493E-05
2	604	126.72914468004	0.525054931640625	0.525054931640625	2.85949707031249E-07	1.50139300103547E-07	1836179.25	4.5798318751622E-05
2	605	126.829852679785	0.514984130859375	0.515045166015625	2.87780761718751E-07	1.48220081541695E-07	1789713.75	4.58272115793079E-05
2	606	126.930560679531	0.504913330078125	0.504913330078125	2.90527343749999E-07	1.46691121472031E-07	1737920.25	4.58563299616799E-05
2	607	127.031268679277	0.494842529296875	0.49481201171875	2.92358398437501E-07	1.44662436696308E-07	1692484.5	4.58856811746955E-05
2	608	127.131976679023	0.484771728515625	0.48480224609375	2.9449462890625E-07	1.42771654054741E-07	1646217.75	4.59152324765455E-05
2	609	127.232684678768	0.474700927734375	0.4747314453125	2.9571533203125E-07	1.40385367330964E-07	1605366.375	4.59449511254206E-05
2	610	127.333392678514	0.464630126953125	0.464630126953125	2.972412109375E-07	1.38107211000715E-07	1563141.75	4.59748080174904E-05
2	611	127.43410067826	0.454559326171875	0.454559326171875	2.98461914062501E-07	1.35668642542441E-07	1523006.125	4.60048031527549E-05
2	612	127.534808678006	0.444488525390625	0.444549560546875	2.99682617187499E-07	1.33223764464674E-07	1483401.375	4.60349219792988E-05
2	613	127.635516677751	0.434417724609375	0.4344482421875	3.0029296875E-07	1.30461742742227E-07	1446748	4.60651353932917E-05
2	614	127.736224677497	0.424346923828125	0.42437744140625	3.01513671875001E-07	1.27955601669782E-07	1407489.875	4.6095436118776E-05
2	615	127.836932677243	0.414276123046875	0.414306640625	3.02734374999999E-07	1.25424861607826E-07	1368548.375	4.61258641735185E-05
2	616	127.937640676989	0.404205322265625	0.40423583984375	3.04565429687501E-07	1.23116251415922E-07	1327254.5	4.61564450233709E-05
2	617	128.038348676734	0.394134521484375	0.394134521484375	3.06091308593751E-07	1.20641146850176E-07	1287637.125	4.61871932202484E-05
2	618	128.13905667648	0.384063720703125	0.38409423828125	3.07617187500001E-07	1.18153984374203E-07	1248611.125	4.62180942122359E-05
2	619	128.239764676226	0.373992919921875	0.373992919921875	3.094482421875E-07	1.15731452865475E-07	1208579.875	4.62491661892273E-05
2	620	128.340472675971	0.363922119140625	0.36395263671875	3.10363769531249E-07	1.12957707187888E-07	1172664.75	4.62803764094133E-05
2	621	128.441180675717	0.353851318359375	0.353851318359375	3.125E-07	1.10578532996897E-07	1132324.25	4.63117394247092E-05
2	622	128.541888675463	0.343780517578125	0.34381103515625	3.131103515625E-07	1.07650791392189E-07	1098050.75	4.63432443211786E-05
2	623	128.642596675209	0.333709716796875	0.333770751953125	3.1463623046875E-07	1.0501636893423E-07	1060814.75	4.63748510810547E-05
2	624	128.743304674954	0.323638916015625	0.323638916015625	3.155517578125E-07	1.02124822376481E-07	1025628.6875	4.64065851701889E-05
2	625	128.8440126747	0.313568115234375	0.313629150390625	3.16162109375E-07	9.91576527553661E-08	991988.4375	4.64383956568781E-05
2	626	128.944720674446	0.303497314453125	0.303466796875	3.1707763671875E-07	9.62225286116336E-08	957074.1875	4.64702789031435E-05
2	627	129.045428674192	0.293426513671875	0.293426513671875	3.17993164062499E-07	9.33076265141608E-08	922744.6875	4.65022603748366E-05
2	628	129.146136673937	0.283355712890625	0.28338623046875	3.17993164062499E-07	9.01148879961511E-08	891170.8125	4.65342818642966E-05
2	629	129.246844673683	0.273284912109375	0.273345947265625	3.17993164062499E-07	8.6922142372714E-08	859596.9375	4.65663069917355E-05
2	630	129.347552673429	0.263214111328125	0.26324462890625	3.17993164062499E-07	8.37099918271633E-08	827831.0625	4.65983321191743E-05
2	631	129.448260673175	0.253143310546875	0.253143310546875	3.16467285156249E-07	8.01115689341714E-08	799903.625	4.66302808490582E-05
2	632	129.54896867292	0.243072509765625	0.24310302734375	3.155517578125E-07	7.67115864164225E-08	770406.25	4.66621058876626E-05
2	633	129.649676672666	0.233001708984375	0.23309326171875	3.143310546875E-07	7.32684526383309E-08	741553.375	4.66938217869028E-05
2	634	129.750384672412	0.222930908203125	0.222930908203125	3.1158447265625E-07	6.94618123020518E-08	715475	4.67253375973087E-05
2	635	129.851092672158	0.212860107421875	0.212890625	3.0792236328125E-07	6.55537846228071E-08	691377.625	4.67565332655795E-05
2	636	129.951800671903	0.202789306640625	0.202850341796875	3.02734374999999E-07	6.14097714901618E-08	670060.5	4.6787281462457E-05
2	637	130.052508671649	0.192718505859375	0.192779541015625	2.95410156250001E-07	5.69490339330514E-08	652582.625	4.68174002890009E-05
2	638	130.153216671395	0.182647705078125	0.182769775390625	2.8564453125E-07	5.22071843533922E-08	639850.4375	4.68466605525464E-05
2	639	130.25392467114	0.172576904296875	0.172637939453125	2.7130126953125E-07	4.68368916983763E-08	636332.9375	4.68747057311703E-05
2	640	130.354632670886	0.162506103515625	0.16259765625	2.520751953125E-07	4.09868334827479E-08	645036.375	4.69010592496488E-05
2	641	130.455340670632	0.152435302734375	0.1524658203125	2.24609375E-07	3.42452501911339E-08	678804.375	4.6925062633818E-05
2	642	130.556048670378	0.142364501953125	0.1424560546875	1.861572265625E-07	2.6519224149979E-08	765245.9375	4.69457445433363E-05
2	643	130.656756670123	0.132293701171875	0.13238525390625	1.31835937499999E-07	1.74531340491058E-08	1004166.6875	4.69617589260451E-05
2	644	130.757464669869	0.122222900390625	0.122344970703125	5.70678710937494E-08	6.9819665604598E-09	2143850.25	4.69712686026469E-05
2	645	130.858172669615	0.112152099609375	0.1121826171875	-4.60815429687497E-08	-5.16954790086288E-09	-2434437.25	4.69718215754256E-05
2	646	130.958880669361	0.102081298828125	0.1021728515625	-1.81884765625E-07	-1.85836839250442E-08	-561745	4.69603437522892E-05
2	647	131.059588669106	0.092010498046875	0.09210205078125	-3.5552978515625E-07	-3.27450209169911E-08	-259055.796875	4.6933284465922E-05
2	648	131.160296668852	0.081939697265625	0.08203125	-5.6915283203125E-07	-4.66883172123289E-08	-144128.6875	4.68867219751701E-05
2	649	131.261004668598	0.071868896484375	0.071929931640625	-8.1634521484375E-07	-5.87196566925741E-08	-88112.1484375	4.68169564555865E-05
2	650	131.361712668344	0.061798095703125	0.06195068359375	-1.08306884765625E-06	-6.70968560712026E-08	-57199.21484375	4.6721313992748E-05
2	651	131.462420668089	0.051727294921875	0.05181884765625	-1.3494873046875E-06	-6.99288804639764E-08	-38398.9140625	4.65988232463133E-05
2	652	131.563128667835	0.041656494140625	0.041790771484375	-1.59027099609375E-06	-6.64586465859429E-08	-26279.02734375	4.64507938886527E-05
2	653	131.663836667581	0.031585693359375	0.0317138671875	-1.78131103515625E-06	-5.64922579826543E-08	-17803.666015625	4.6281023969641E-05
2	654	131.764544667327	0.021514892578125	0.0216583251953125	-1.90460205078125E-06	-4.12504910229927E-08	-11371.576171875	4.60954215668608E-05
2	655	131.865252667072	0.011444091796875	0.0115875244140625	-1.95770263671875E-06	-2.26849277140673E-08	-5918.9404296875	4.59009388578124E-05
2	656	131.965960666818	0.001373291015625	0.00153198242187499	-1.94915771484375E-06	-2.98607538695705E-09	-785.971557617188	4.5704215153819E-05
2	657	132.066668666564	-0.008697509765625	-0.00855712890625	-1.895751953125E-06	1.62221933663886E-08	4513.84423828125	4.55106055596843E-05
2	658	132.167376666309	-0.018768310546875	-0.0186004638671875	-1.8170166015625E-06	3.37973524722202E-08	10236.8154296875	4.53236534667667E-05
2	659	132.268084666055	-0.028839111328125	-0.0286529541015625	-1.7254638671875E-06	4.94396346084613E-08	16605.943359375	4.51452760898974E-05
2	660	132.368792665801	-0.038909912109375	-0.038726806640625	-1.6314697265625E-06	6.31816092777626E-08	23737.375	4.49762410426047E-05
2	661	132.469500665547	-0.048980712890625	-0.0487884521484375	-1.54144287109375E-06	7.52046105390036E-08	31651.15625	4.48164719273336E-05
2	662	132.570208665292	-0.059051513671875	-0.058929443359375	-1.4593505859375E-06	8.59987139278928E-08	40380.59375	4.46653721155599E-05
2	663	132.670916665038	-0.069122314453125	-0.069000244140625	-1.38427734375E-06	9.55154746407061E-08	49845.6796875	4.45221812697127E-05
2	664	132.771624664784	-0.079193115234375	-0.0791015625	-1.3177490234375E-06	1.04236008269254E-07	60027.7890625	4.43861245003063E-05
2	665	132.87233266453	-0.089263916015625	-0.08917236328125	-1.25885009765625E-06	1.12254632256281E-07	70836.3671875	4.4256383262109E-05
2	666	132.973040664275	-0.099334716796875	-0.0992431640625	-1.2060546875E-06	1.19692685984774E-07	82287.453125	4.41322663391475E-05
2	667	133.073748664021	-0.109405517578125	-0.109283447265625	-1.15966796875E-06	1.26732516037009E-07	94236.84375	4.40131407231092E-05
2	668	133.174456663767	-0.119476318359375	-0.119354248046875	-1.119384765625E-06	1.33603322183262E-07	106624.8671875	4.38983806816395E-05
2	669	133.275164663513	-0.129547119140625	-0.12945556640625	-1.0833740234375E-06	1.40248786806296E-07	119492.96875	4.37874659837689E-05
2	670	133.375872663258	-0.139617919921875	-0.139495849609375	-1.05133056640625E-06	1.4665624803456E-07	132685.0625	4.36799746239558E-05
2	671	133.476580663004	-0.149688720703125	-0.1495361328125	-1.02325439453125E-06	1.53013502313115E-07	146137.78125	4.35755100625101E-05
2	672	133.57728866275	-0.159759521484375	-0.159576416015625	-9.98840332031251E-07	1.59391348120153E-07	159761.6875	4.34736903116573E-05
2	673	133.677996662496	-0.169830322265625	-0.169647216796875	-9.7625732421875E-07	1.65619326253363E-07	173773.0625	4.3374235247029E-05
2	674	133.778704662241	-0.179901123046875	-0.179779052734375	-9.5703125E-07	1.72054171798663E-07	187850.765625	4.327688657213E-05
2	675	133.879412661987	-0.189971923828125	-0.189697265625	-9.4024658203125E-07	1.78362199676485E-07	201752.6875	4.3181349610677E-05
2	676	133.980120661733	-0.200042724609375	-0.19989013671875	-9.2620849609375E-07	1.85139938935208E-07	215815.484375	4.30873660661746E-05
2	677	134.080828661478	-0.189971923828125	-0.189788818359375	-8.13903808593749E-07	1.54469844915184E-07	233183.359375	4.29997453466058E-05
