Potential - Start -0.2 V, Upper Vertex 1.5 V, Lower Vertex -0.2 V, Stop -0.19 V; Scan - # end cross 5, Rate 0.1 Vps, Step 0.01 V 
Scan	Index	Time (s)	Potential applied (V)	WE(1).Potential (V)	WE(1).Current (A)	WE(1).Power (W)	WE(1).Resistance (Ω)	WE(1).Charge (C)
1	1	66.1645728329505	-0.189971923828125	-0.1898193359375	-2.26745605468751E-07	4.30406998930266E-08	837146.75	0
1	2	66.2652808326962	-0.179901123046875	-0.1798095703125	-1.922607421875E-07	3.45703199400305E-08	935238.125	-2.10986446091965E-08
1	3	66.365988832442	-0.169830322265625	-0.169708251953125	-1.65405273437499E-07	2.80706391464491E-08	1026014.8125	-3.91085599460439E-08
1	4	66.4666968321877	-0.159759521484375	-0.15960693359375	-1.4312744140625E-07	2.28441319194417E-08	1115138.625	-5.46444169913229E-08
1	5	66.5674048319335	-0.149688720703125	-0.149566650390625	-1.24206542968749E-07	1.85771558136594E-08	1204177	-6.8105748596281E-08
1	6	66.6681128316792	-0.139617919921875	-0.139495849609375	-1.055908203125E-07	1.47294807462117E-08	1321098.375	-7.96769654698437E-08
1	7	66.7688208314249	-0.129547119140625	-0.12939453125	-8.78906250000006E-08	1.13725660000341E-08	1472222.25	-8.94195295586542E-08
1	8	66.8695288311707	-0.119476318359375	-0.119415283203125	-7.04956054687497E-08	8.41825187336553E-09	1693939.5	-9.73949099147831E-08
1	9	66.9702368309164	-0.109405517578125	-0.109283447265625	-5.15747070312503E-08	5.63626167959796E-09	2118935	-1.0354163748616E-07
1	10	67.0709448306621	-0.099334716796875	-0.099273681640625	-3.08227539062497E-08	3.05988834270465E-09	3220792	-1.07690681261374E-07
1	11	67.1716528304079	-0.089263916015625	-0.089202880859375	-7.93457031249972E-09	7.07786551590317E-10	11242308	-1.0964226504484E-07
1	12	67.2723608301536	-0.079193115234375	-0.0791015625	2.01416015624997E-08	-1.59323210180418E-09	-3927273	-1.09027595840416E-07
1	13	67.3730688298994	-0.069122314453125	-0.069061279296875	5.55419921874995E-08	-3.83580101015468E-09	-1243406.625	-1.05216621193449E-07
1	14	67.4737768296451	-0.059051513671875	-0.05889892578125	1.01318359374999E-07	-5.96754246018349E-09	-581325.3125	-9.73180789287653E-08
1	15	67.5744848293908	-0.048980712890625	-0.0488006591796875	1.629638671875E-07	-7.95274335274598E-09	-299456.9375	-8.40104092958427E-08
1	16	67.6751928291366	-0.038909912109375	-0.0387542724609375	2.44750976562499E-07	-9.48514600196404E-09	-158341.65625	-6.34803356547309E-08
1	17	67.7759008288823	-0.028839111328125	-0.0287078857421875	3.51867675781251E-07	-1.01013766240499E-08	-81587.1640625	-3.34382015410029E-08
1	18	67.876608828628	-0.018768310546875	-0.0186248779296875	4.89501953125E-07	-9.11691344640531E-09	-38048.62890625	8.92812135333543E-09
1	19	67.9773168283738	-0.008697509765625	-0.008563232421875	6.58569335937501E-07	-5.6394822145478E-09	-13002.78125	6.67381030439174E-08
1	20	68.0780248281195	0.001373291015625	0.00147399902343751	8.5723876953125E-07	1.26356913821013E-09	1719.47314453125	1.4306510820461E-07
1	21	68.1787328278652	0.011444091796875	0.011566162109375	1.07513427734375E-06	1.24351773322928E-08	10757.876953125	2.40367825199428E-07
1	22	68.279440827611	0.021514892578125	0.0216094970703125	1.29547119140625E-06	2.79944796233167E-08	16680.80078125	3.59737271082849E-07
1	23	68.3801488273567	0.031585693359375	0.03167724609375	1.497802734375E-06	4.74462638067052E-08	21149.14453125	5.0038977406075E-07
1	24	68.4808568271025	0.041656494140625	0.0417572021484375	1.66259765625E-06	6.94254254085536E-08	25115.640625	6.59528609503468E-07
1	25	68.5815648268482	0.051727294921875	0.051788330078125	1.77581787109375E-06	9.19666405252428E-08	29163.0859375	8.32666557926132E-07
1	26	68.6822728265939	0.061798095703125	0.06182861328125	1.83258056640625E-06	1.13305915760975E-07	33738.55078125	1.01436387467402E-06
1	27	68.7829808263397	0.071868896484375	0.071929931640625	1.83929443359375E-06	1.32300328914425E-07	39107.3515625	1.19925744002103E-06
1	28	68.8836888260854	0.081939697265625	0.082000732421875	1.81060791015625E-06	1.48471173133657E-07	45289.0625	1.38304460506333E-06
1	29	68.9843968258311	0.092010498046875	0.092041015625	1.75872802734375E-06	1.61875107096421E-07	52333.85546875	1.56277496898838E-06
1	30	69.0851048255769	0.102081298828125	0.102081298828125	1.69525146484375E-06	1.73053464891382E-07	60216.0234375	1.73669661762688E-06
1	31	69.1858128253226	0.112152099609375	0.1121826171875	1.62872314453125E-06	1.82714416041563E-07	68877.6484375	1.90407206446253E-06
1	32	69.2865208250684	0.122222900390625	0.122283935546875	1.56402587890625E-06	1.91255239201382E-07	78185.3671875	2.06483969122928E-06
1	33	69.3872288248141	0.132293701171875	0.13232421875	1.5032958984375E-06	1.98922450067585E-07	88022.7421875	2.21929167310009E-06
1	34	69.4879368245598	0.142364501953125	0.142425537109375	1.44775390625E-06	2.06197128704844E-07	98376.8984375	2.36788878282823E-06
1	35	69.5886448243056	0.152435302734375	0.15240478515625	1.39739990234375E-06	2.12970419966041E-07	109063.1171875	2.51115375249356E-06
1	36	69.6893528240513	0.162506103515625	0.162445068359375	1.35284423828125E-06	2.19762867459394E-07	120076.703125	2.64963955487474E-06
1	37	69.790060823797	0.172576904296875	0.17254638671875	1.31378173828125E-06	2.26688285920318E-07	131335.65625	2.78391485153406E-06
1	38	69.8907688235428	0.182647705078125	0.18267822265625	1.27899169921875E-06	2.33643930869221E-07	142829.875	2.91447122435784E-06
1	39	69.9914768232885	0.192718505859375	0.192718505859375	1.2481689453125E-06	2.40545261931402E-07	154400.984375	3.04172385767743E-06
1	40	70.0921848230342	0.202789306640625	0.202789306640625	1.22161865234375E-06	2.4773117957011E-07	166000.5	3.16608748107683E-06
1	41	70.19289282278	0.212860107421875	0.212860107421875	1.19598388671875E-06	2.54577258829158E-07	177979.078125	3.28782357428281E-06
1	42	70.2936008225257	0.222930908203125	0.222930908203125	1.17401123046875E-06	2.61723386074664E-07	189888.21875	3.40716223945492E-06
1	43	70.3943088222715	0.233001708984375	0.233001708984375	1.15386962890625E-06	2.68853568741179E-07	201930.71875	3.52438041772984E-06
1	44	70.4950168220172	0.243072509765625	0.2430419921875	1.13616943359375E-06	2.76136887578105E-07	213913.515625	3.63969297723088E-06
1	45	70.5957248217629	0.253143310546875	0.253143310546875	1.1199951171875E-06	2.83519256072395E-07	226021.796875	3.75330000679241E-06
1	46	70.6964328215087	0.263214111328125	0.26324462890625	1.1053466796875E-06	2.90976572614454E-07	238155.71875	3.8653547562717E-06
1	47	70.7971408212544	0.273284912109375	0.273284912109375	1.09161376953125E-06	2.98321566560844E-07	250349.46875	3.9759806895745E-06
1	48	70.8978488210001	0.283355712890625	0.283355712890625	1.07940673828125E-06	3.05856076465716E-07	262510.59375	4.0853001337382E-06
1	49	70.9985568207459	0.293426513671875	0.293426513671875	1.0675048828125E-06	3.13234238547011E-07	274871.375	4.19340585722239E-06
1	50	71.0992648204916	0.303497314453125	0.303466796875	1.05682373046875E-06	3.20710910273192E-07	287149.875	4.30037425758201E-06
1	51	71.1999728202373	0.313568115234375	0.31353759765625	1.04736328125E-06	3.28387784520601E-07	299358.96875	4.4063281166018E-06
1	52	71.3006808199831	0.323638916015625	0.3236083984375	1.0382080078125E-06	3.3597282822484E-07	311699	4.51134519607876E-06
1	53	71.4013888197288	0.333709716796875	0.333740234375	1.03118896484375E-06	3.44149242437197E-07	323646.0625	4.61554782305029E-06
1	54	71.5020968194746	0.343780517578125	0.343780517578125	1.02386474609375E-06	3.51984738244937E-07	335767.53125	4.71902785648126E-06
1	55	71.6028048192203	0.353851318359375	0.353912353515625	1.01837158203125E-06	3.60414276201482E-07	347527.71875	4.82186260342132E-06
1	56	71.703512818966	0.363922119140625	0.363922119140625	1.01287841796875E-06	3.68608880307875E-07	359294.96875	4.92414392283536E-06
1	57	71.8042208187118	0.373992919921875	0.37396240234375	1.00830078125E-06	3.77066555756755E-07	370883.78125	5.0259186537005E-06
1	58	71.9049288184575	0.384063720703125	0.384124755859375	1.004638671875E-06	3.85906588462603E-07	382351.15625	5.12727820023429E-06
1	59	72.0056368182032	0.394134521484375	0.394134521484375	1.00128173828125E-06	3.94639698697574E-07	393630	5.22828440807643E-06
1	60	72.106344817949	0.404205322265625	0.40423583984375	9.9945068359375E-07	4.04013775323619E-07	404458.03125	5.32902913619182E-06
1	61	72.2070528176947	0.414276123046875	0.414306640625	9.9853515625E-07	4.13699751788954E-07	414914.4375	5.42963562111254E-06
1	62	72.3077608174405	0.424346923828125	0.42431640625	9.9761962890625E-07	4.23306374841559E-07	425328.84375	5.53015024706838E-06
1	63	72.4084688171862	0.434417724609375	0.4344482421875	9.9700927734375E-07	4.33148898082436E-07	435751.46875	5.63058756597457E-06
1	64	72.5091768169319	0.444488525390625	0.444488525390625	9.9700927734375E-07	4.43159166252372E-07	445821.875	5.73099441680824E-06
1	65	72.6098848166777	0.454559326171875	0.454620361328125	9.9700927734375E-07	4.53260696531288E-07	455984.09375	5.83140126764192E-06
1	66	72.7105928164234	0.464630126953125	0.464630126953125	9.9822998046875E-07	4.63807737105526E-07	465453.96875	5.93186950936797E-06
1	67	72.8113008161691	0.474700927734375	0.47467041015625	9.991455078125E-07	4.74264822969417E-07	475076.34375	6.03244552621618E-06
1	68	72.9120088159149	0.484771728515625	0.484771728515625	1.0015869140625E-06	4.85540965655673E-07	484003.6875	6.13319025433157E-06
1	69	73.0127168156606	0.494842529296875	0.494842529296875	1.00494384765625E-06	4.97288908718474E-07	492408.15625	6.23422693024622E-06
1	70	73.1134248154063	0.504913330078125	0.50494384765625	1.00799560546875E-06	5.08981145230791E-07	500938.5625	6.33558647678001E-06
1	71	73.2141328151521	0.514984130859375	0.514984130859375	1.01348876953125E-06	5.21930587638053E-07	508130.125	6.43737621430773E-06
1	72	73.3148408148978	0.525054931640625	0.52508544921875	1.019287109375E-06	5.35212791419326E-07	515149.71875	6.53973484077142E-06
1	73	73.4155488146436	0.535125732421875	0.53509521484375	1.02569580078125E-06	5.48844866443687E-07	521690	6.64270783090615E-06
1	74	73.5162568143893	0.545196533203125	0.545135498046875	1.03546142578125E-06	5.6446680218869E-07	526466.25	6.74649527354632E-06
1	75	73.616964814135	0.555267333984375	0.55523681640625	1.04888916015625E-06	5.82381858293957E-07	529357.0625	6.85145096213091E-06
1	76	73.7176728138808	0.565338134765625	0.565338134765625	1.06597900390625E-06	6.02638579039194E-07	530346.4375	6.9579427872668E-06
1	77	73.8183808136265	0.575408935546875	0.57537841796875	1.09100341796875E-06	6.27739780156844E-07	527384.625	7.06655555404723E-06
1	78	73.9190888133722	0.585479736328125	0.58551025390625	1.124267578125E-06	6.58270209896727E-07	520792.625	7.17810326023027E-06
1	79	74.019796813118	0.595550537109375	0.595458984375	1.17156982421875E-06	6.97621771905688E-07	508257.375	7.29370776753058E-06
1	80	74.1205048128637	0.605621337890625	0.605560302734375	1.23779296875E-06	7.49558296320174E-07	489225.84375	7.41502890377888E-06
1	81	74.2212128126095	0.615692138671875	0.61566162109375	1.33026123046875E-06	8.18990770312666E-07	462812.59375	7.54434086047695E-06
1	82	74.3219208123552	0.625762939453125	0.625640869140625	1.4581298828125E-06	9.12265647912136E-07	429070.75	7.6847472882946E-06
1	83	74.4226288121009	0.635833740234375	0.635833740234375	1.6265869140625E-06	1.03423883501819E-06	390900.59375	7.84007534093689E-06
1	84	74.5233368118467	0.645904541015625	0.645843505859375	1.839599609375E-06	1.18809339255677E-06	351078.3125	8.01461192168063E-06
1	85	74.6240448115924	0.655975341796875	0.65594482421875	2.09442138671875E-06	1.37382471621095E-06	313186.6875	8.21270532469498E-06
1	86	74.7247528113381	0.666046142578125	0.66595458984375	2.3828125E-06	1.58684485995764E-06	279482.59375	8.43815178086516E-06
1	87	74.8254608110839	0.676116943359375	0.67608642578125	2.68585205078125E-06	1.81586813141621E-06	251721.40625	8.69337964104488E-06
1	88	74.9261688108296	0.686187744140625	0.686126708984375	2.98126220703125E-06	2.04552361537935E-06	230146.375	8.97874087968376E-06
1	89	75.0268768105753	0.696258544921875	0.6961669921875	3.24188232421875E-06	2.25689132093976E-06	214741.609375	9.29210182221141E-06
1	90	75.1275848103211	0.706329345703125	0.70623779296875	3.44818115234375E-06	2.43523572862614E-06	204814.59375	9.62897320277989E-06
1	91	75.2282928100668	0.716400146484375	0.716339111328125	3.58428955078125E-06	2.56756675298675E-06	199855.265625	9.98308587440988E-06
1	92	75.3290008098126	0.726470947265625	0.726348876953125	3.64959716796875E-06	2.65088078776898E-06	199021.65625	1.0347341230954E-05
1	93	75.4297088095583	0.736541748046875	0.736328125	3.6566162109375E-06	2.69246925199695E-06	201368.71875	1.07152382042841E-05
1	94	75.530416809304	0.746612548828125	0.746490478515625	3.62701416015625E-06	2.70753162112669E-06	205814.046875	1.1081998309237E-05
1	95	75.6311248090498	0.756683349609375	0.7568359375	3.5797119140625E-06	2.70925443146552E-06	211423.703125	1.14448857857496E-05
1	96	75.7318328087955	0.766754150390625	0.76690673828125	3.5357666015625E-06	2.71160320153285E-06	216899.703125	1.1803178495029E-05
1	97	75.8325408085412	0.776824951171875	0.7769775390625	3.511962890625E-06	2.72871625384141E-06	221237.40625	1.2158059689682E-05
1	98	75.933248808287	0.786895751953125	0.787353515625	3.5223388671875E-06	2.773325832095E-06	223531.453125	1.25122651297715E-05
1	99	76.0339568080327	0.796966552734375	0.79681396484375	3.57757568359375E-06	2.85066221294983E-06	222724.5625	1.2869773854618E-05
1	100	76.1346648077784	0.807037353515625	0.806884765625	3.6859130859375E-06	2.97410701932677E-06	218910.421875	1.32355198729783E-05
1	101	76.2353728075242	0.817108154296875	0.81695556640625	3.85101318359375E-06	3.1461065645999E-06	212140.4375	1.36150338221341E-05
1	102	76.3360808072699	0.827178955078125	0.82733154296875	4.068603515625E-06	3.36608422912832E-06	203345.328125	1.40138181450311E-05
1	103	76.4367888070157	0.837249755859375	0.83709716796875	4.32464599609375E-06	3.62014884558448E-06	193564.328125	1.44364521474927E-05
1	104	76.5374968067614	0.847320556640625	0.84747314453125	4.59991455078125E-06	3.89830393032753E-06	184236.71875	1.48858398461016E-05
1	105	76.6382048065071	0.857391357421875	0.8575439453125	4.8675537109375E-06	4.17414139519678E-06	176175.546875	1.53625642269617E-05
1	106	76.7389128062529	0.867462158203125	0.867919921875	5.1025390625E-06	4.42859527538531E-06	170095.6875	1.58645980263827E-05
1	107	76.8396208059986	0.877532958984375	0.87799072265625	5.2734375E-06	4.63002879769192E-06	166493.0625	1.6387069990742E-05
1	108	76.9403288057443	0.887603759765625	0.8880615234375	5.3680419921875E-06	4.76715149488882E-06	165434.90625	1.69229115272174E-05
1	109	77.0410368054901	0.897674560546875	0.8978271484375	5.3863525390625E-06	4.83601343148621E-06	166685.5625	1.74644374055788E-05
1	110	77.1417448052358	0.907745361328125	0.9075927734375	5.3375244140625E-06	4.84429847347201E-06	170040.03125	1.80044280568836E-05
1	111	77.2424528049816	0.917816162109375	0.91827392578125	5.2398681640625E-06	4.81163442600518E-06	175247.53125	1.85370427061571E-05
1	112	77.3431608047273	0.927886962890625	0.92803955078125	5.1177978515625E-06	4.7495186663582E-06	181335.71875	1.90585924428888E-05
1	113	77.443868804473	0.937957763671875	0.9381103515625	4.986572265625E-06	4.6779550757492E-06	188127.296875	1.95673874259228E-05
1	114	77.5445768042188	0.948028564453125	0.948486328125	4.85198974609375E-06	4.60204591945512E-06	195484	2.00627982849255E-05
1	115	77.6452848039645	0.958099365234375	0.95794677734375	4.7265625E-06	4.52779522674973E-06	202673.03125	2.05451160582015E-05
1	116	77.7459928037102	0.968170166015625	0.96771240234375	4.61090087890625E-06	4.46202602688572E-06	209874.921875	2.10152957151877E-05
1	117	77.846700803456	0.978240966796875	0.97869873046875	4.50439453125E-06	4.40844496552018E-06	217276.4375	2.14742867683526E-05
1	118	77.9474088032017	0.988311767578125	0.98846435546875	4.40704345703125E-06	4.35620540883974E-06	224291.953125	2.19230132643133E-05
1	119	78.0481168029474	0.998382568359375	0.99853515625	4.3194580078125E-06	4.31313037552172E-06	231171.421875	2.23624283535173E-05
1	120	78.1488248026932	1.00845336914063	1.00830078125	4.24072265625E-06	4.27592431151425E-06	237766.25	2.2793466996518E-05
1	121	78.2495328024389	1.01852416992188	1.0186767578125	4.17022705078125E-06	4.24811332777608E-06	244273.703125	2.32169913942926E-05
1	122	78.3502408021847	1.02859497070313	1.0284423828125	4.10614013671875E-06	4.22292805524194E-06	250464.53125	2.3633740056539E-05
1	123	78.4509488019304	1.03866577148438	1.03851318359375	4.04815673828125E-06	4.20406422563246E-06	256539.765625	2.40443423535908E-05
1	124	78.5516568016761	1.04873657226563	1.048583984375	3.995361328125E-06	4.18947183788987E-06	262450.375	2.44493658101419E-05
1	125	78.6523648014219	1.05880737304688	1.058349609375	3.9471435546875E-06	4.17745741287945E-06	268130.53125	2.48493015533313E-05
1	126	78.7530728011676	1.06887817382813	1.0687255859375	3.9031982421875E-06	4.17144747189013E-06	273807.6875	2.52445988735417E-05
1	127	78.8537808009133	1.07894897460938	1.0791015625	3.86260986328125E-06	4.16814827985945E-06	279371.09375	2.56356379395584E-05
1	128	78.9544888006591	1.08901977539063	1.08917236328125	3.82598876953125E-06	4.16716102336068E-06	284677.375	2.60227898252197E-05
1	129	79.0551968004048	1.09909057617188	1.0992431640625	3.792724609375E-06	4.16912644141121E-06	289829.40625	2.64064219663851E-05
1	130	79.1559048001506	1.10916137695313	1.10870361328125	3.76312255859375E-06	4.17218734583003E-06	294623.3125	2.67868890659884E-05
1	131	79.2566127998963	1.11923217773438	1.119384765625	3.73504638671875E-06	4.18095396526041E-06	299697.6875	2.71644512395142E-05
1	132	79.357320799642	1.12930297851563	1.1285400390625	3.71002197265625E-06	4.18690842707292E-06	304186.90625	2.75393413176062E-05
1	133	79.4580287993878	1.13937377929688	1.13922119140625	3.6865234375E-06	4.19976549892453E-06	309023.1875	2.79117866739398E-05
1	134	79.5587367991335	1.14944458007813	1.14959716796875	3.66455078125E-06	4.21275717599201E-06	313707.53125	2.82819419226144E-05
1	135	79.6594447988792	1.15951538085938	1.1602783203125	3.64410400390625E-06	4.22817447542911E-06	318398.8125	2.86499616777292E-05
1	136	79.760152798625	1.16958618164063	1.16943359375	3.6260986328125E-06	4.24048130298615E-06	322504.625	2.90160460281186E-05
1	137	79.8608607983707	1.17965698242188	1.17950439453125	3.609619140625E-06	4.25756161348545E-06	326767	2.93803932436276E-05
1	138	79.9615687981164	1.18972778320313	1.1895751953125	3.5943603515625E-06	4.27576196670998E-06	330956.03125	2.97431433864404E-05
1	139	80.0622767978622	1.19979858398438	1.1993408203125	3.580322265625E-06	4.29402643931098E-06	334981.28125	3.01044165098574E-05
1	140	80.1629847976079	1.20986938476563	1.21002197265625	3.56689453125E-06	4.31602074968396E-06	339236.8125	3.04643072013278E-05
1	141	80.2636927973537	1.21994018554688	1.21978759765625	3.5552978515625E-06	4.33670811617048E-06	343090.125	3.08229391521309E-05
1	142	80.3644007970994	1.23001098632813	1.2298583984375	3.54461669921875E-06	4.35937636211747E-06	346965.125	3.11804469674826E-05
1	143	80.4651087968451	1.24008178710938	1.23992919921875	3.5345458984375E-06	4.38258666690672E-06	350802.96875	3.15369106829166E-05
1	144	80.5658167965909	1.25015258789063	1.25	3.5260009765625E-06	4.40750136476709E-06	354509.28125	3.18924394377973E-05
1	145	80.6665247963366	1.26022338867188	1.26007080078125	3.51959228515625E-06	4.43493536295136E-06	358016.15625	3.22472114930861E-05
1	146	80.7672327960823	1.27029418945313	1.2701416015625	3.51348876953125E-06	4.4626281123783E-06	361504.375	3.260135781602E-05
1	147	80.8679407958281	1.28036499023438	1.28021240234375	3.5089111328125E-06	4.49215121989255E-06	364846.0625	3.29549620801117E-05
1	148	80.9686487955738	1.29043579101563	1.2908935546875	3.505859375E-06	4.52569111075718E-06	368210.3125	3.33081843564287E-05
1	149	81.0693567953195	1.30050659179688	1.30096435546875	3.50311279296875E-06	4.55742474514409E-06	371373.8125	3.36611119564623E-05
1	150	81.1700647950653	1.31057739257813	1.31072998046875	3.502197265625E-06	4.59043485534494E-06	374259.34375	3.40138576575555E-05
1	151	81.270772794811	1.32064819335938	1.3201904296875	3.50311279296875E-06	4.62477601104183E-06	376862.09375	3.43666033586487E-05
1	152	81.3714807945568	1.33071899414063	1.33056640625	3.50555419921875E-06	4.66437268187292E-06	379559.5	3.47195200447459E-05
1	153	81.4721887943025	1.34078979492188	1.34063720703125	3.509521484375E-06	4.70499480798026E-06	382000.03125	3.50727568729781E-05
1	154	81.5728967940482	1.35086059570313	1.35101318359375	3.51409912109375E-06	4.74759417556925E-06	384455.0625	3.54264229827095E-05
1	155	81.673604793794	1.36093139648438	1.36077880859375	3.519287109375E-06	4.78897118227906E-06	386663.21875	3.57805838575587E-05
1	156	81.7743127935397	1.37100219726563	1.370849609375	3.52569580078125E-06	4.83319854538422E-06	388816.75	3.6135326809017E-05
1	157	81.8750207932854	1.38107299804688	1.38092041015625	3.5333251953125E-06	4.87924080516677E-06	390827.4375	3.64907755283639E-05
1	158	81.9757287930312	1.39114379882813	1.3916015625	3.54217529296875E-06	4.92929666506825E-06	392866.40625	3.68470537068788E-05
1	159	82.0764367927769	1.40121459960938	1.40106201171875	3.55316162109375E-06	4.97819974043523E-06	394314.1875	3.72043323295657E-05
1	160	82.1771447925227	1.41128540039063	1.412353515625	3.56689453125E-06	5.03771616422455E-06	395961.65625	3.75628551410045E-05
1	161	82.2778527922684	1.42135620117188	1.42120361328125	3.58306884765625E-06	5.09227038492099E-06	396644.25	3.79228877136484E-05
1	162	82.3785607920141	1.43142700195313	1.43157958984375	3.603515625E-06	5.15871943207458E-06	397273.03125	3.82847611035686E-05
1	163	82.4792687917599	1.44149780273438	1.441650390625	3.62640380859375E-06	5.22800610269769E-06	397542.71875	3.86488136427943E-05
1	164	82.5799767915056	1.45156860351563	1.451416015625	3.65447998046875E-06	5.30417082700296E-06	397160.75	3.90154345950577E-05
1	165	82.6806847912513	1.46163940429688	1.461181640625	3.687744140625E-06	5.38846416020533E-06	396226.40625	3.93851478293072E-05
1	166	82.7813927909971	1.47171020507813	1.47186279296875	3.72833251953125E-06	5.48759362573037E-06	394777.78125	3.97585754399188E-05
1	167	82.8821007907428	1.48178100585938	1.48193359375	3.77532958984375E-06	5.59478758077603E-06	392530.9375	4.01364159188233E-05
1	168	82.9828087904885	1.49185180664063	1.49200439453125	3.83148193359375E-06	5.71658802073216E-06	389406.59375	4.05194477934856E-05
1	169	83.0835167902343	1.50192260742188	1.50238037109375	3.89678955078125E-06	5.85446014156332E-06	385543.09375	4.09085987485014E-05
1	170	83.18422478998	1.49185180664063	1.4923095703125	3.66424560546875E-06	5.46818864677334E-06	407262.4375	4.12893277825788E-05
1	171	83.2849327897258	1.48178100585938	1.48162841796875	3.49700927734375E-06	5.18126807946828E-06	423684.4375	4.16499242419377E-05
1	172	83.3856407894715	1.47171020507813	1.4715576171875	3.3673095703125E-06	4.95518997922773E-06	437012.875	4.19955686083995E-05
1	173	83.4863487892172	1.46163940429688	1.4617919921875	3.26141357421875E-06	4.76750801681192E-06	448208.125	4.23293531639501E-05
1	174	83.587056788963	1.45156860351563	1.451416015625	3.17474365234375E-06	4.60787350675673E-06	457175.8125	4.26534388680011E-05
1	175	83.6877647887087	1.44149780273438	1.4410400390625	3.10089111328125E-06	4.46850799562526E-06	464718.0625	4.29694409831427E-05
1	176	83.7884727884544	1.43142700195313	1.4312744140625	3.038330078125E-06	4.34868388765608E-06	471072.71875	4.32785782322753E-05
1	177	83.8891807882002	1.42135620117188	1.42120361328125	2.98370361328125E-06	4.24045038016629E-06	476322	4.3581811041804E-05
1	178	83.9898887879459	1.41128540039063	1.41143798828125	2.935791015625E-06	4.14368696510792E-06	480769.25	4.38798815594055E-05
1	179	84.0905967876917	1.40121459960938	1.40106201171875	2.89306640625E-06	4.05336504627485E-06	484282.71875	4.4173386413604E-05
1	180	84.1913047874374	1.39114379882813	1.3916015625	2.855224609375E-06	3.97333496948704E-06	487387.8125	4.44628349214327E-05
1	181	84.2920127871831	1.38107299804688	1.38153076171875	2.8204345703125E-06	3.89651677323855E-06	489829.0625	4.47486272605602E-05
1	182	84.3927207869289	1.37100219726563	1.370849609375	2.789306640625E-06	3.82371990781394E-06	491466.09375	4.50311017630156E-05
1	183	84.4934287866746	1.36093139648438	1.36077880859375	2.76153564453125E-06	3.75783906747529E-06	492761.625	4.53106076747645E-05
1	184	84.5941367864203	1.35086059570313	1.3507080078125	2.735595703125E-06	3.6949909372197E-06	493752.78125	4.55874105682597E-05
1	185	84.6948447861661	1.34078979492188	1.34063720703125	2.7105712890625E-06	3.63389244739665E-06	494595.84375	4.58616486866958E-05
1	186	84.7955527859118	1.33071899414063	1.33056640625	2.6861572265625E-06	3.57411045115441E-06	495342	4.61333947896492E-05
1	187	84.8962607856575	1.32064819335938	1.32110595703125	2.6629638671875E-06	3.51805738318944E-06	496103.59375	4.64027434645686E-05
1	188	84.9969687854033	1.31057739257813	1.31103515625	2.6409912109375E-06	3.46243223248166E-06	496417.84375	4.66698184027337E-05
1	189	85.097676785149	1.30050659179688	1.3006591796875	2.61962890625E-06	3.40724409397808E-06	496505.15625	4.69347105536144E-05
1	190	85.1983847848948	1.29043579101563	1.2908935546875	2.59979248046875E-06	3.35605523105187E-06	496537.15625	4.7197532694554E-05
1	191	85.2990927846405	1.28036499023438	1.28021240234375	2.5799560546875E-06	3.30289162775443E-06	496214.84375	4.74583503091708E-05
1	192	85.3998007843862	1.27029418945313	1.270751953125	2.56103515625E-06	3.25444011650688E-06	496186.875	4.77172216051258E-05
1	193	85.500508784132	1.26022338867188	1.26007080078125	2.54180908203125E-06	3.20285926136421E-06	495737.8125	4.79741684102919E-05
1	194	85.6012167838777	1.25015258789063	1.25030517578125	2.52349853515625E-06	3.15514330395672E-06	495465	4.82292271044571E-05
1	195	85.7019247836234	1.24008178710938	1.23931884765625	2.5054931640625E-06	3.10510472445458E-06	494640.71875	4.84824595332611E-05
1	196	85.8026327833692	1.23001098632813	1.22955322265625	2.4884033203125E-06	3.05962407765037E-06	494113.34375	4.87339202663861E-05
1	197	85.9033407831149	1.21994018554688	1.21978759765625	2.471923828125E-06	3.01522209156246E-06	493456.78125	4.89836929773446E-05
1	198	86.0040487828607	1.20986938476563	1.21002197265625	2.45635986328125E-06	2.97224937639839E-06	492607.78125	4.92318504257128E-05
1	199	86.1047567826064	1.19979858398438	1.19964599609375	2.44171142578125E-06	2.92918912236928E-06	491313.59375	4.94784908369184E-05
1	200	86.2054647823521	1.18972778320313	1.1895751953125	2.4267578125E-06	2.88681076199282E-06	490191.1875	4.97236360388342E-05
1	201	86.3061727820979	1.17965698242188	1.17950439453125	2.4114990234375E-06	2.84437373920809E-06	489116.6875	4.99672605656087E-05
1	202	86.4068807818436	1.16958618164063	1.16973876953125	2.3974609375E-06	2.80440281130723E-06	487907.375	5.02094117109664E-05
1	203	86.5075887815893	1.15951538085938	1.15936279296875	2.3828125E-06	2.76254399977915E-06	486552.25	5.04501185787376E-05
1	204	86.6082967813351	1.14944458007813	1.1492919921875	2.36846923828125E-06	2.72206284535059E-06	485246.75	5.06893629790284E-05
1	205	86.7090047810808	1.13937377929688	1.1395263671875	2.3553466796875E-06	2.68397957370325E-06	483804.09375	5.09272285853513E-05
1	206	86.8097127808265	1.12930297851563	1.129150390625	2.34222412109375E-06	2.64472305389063E-06	482084.71875	5.11637699673884E-05
1	207	86.9104207805723	1.11923217773438	1.119384765625	2.32879638671875E-06	2.60681918007322E-06	480670.9375	5.13989725732245E-05
1	208	87.011128780318	1.10916137695313	1.10870361328125	2.31536865234375E-06	2.56705766332743E-06	478845.40625	5.16328254889231E-05
1	209	87.1118367800638	1.09909057617188	1.0992431640625	2.30133056640625E-06	2.52972199632495E-06	477655.46875	5.18652959726751E-05
1	210	87.2125447798095	1.08901977539063	1.08917236328125	2.28668212890625E-06	2.49059098678117E-06	476311.25	5.20963185408618E-05
1	211	87.3132527795552	1.07894897460938	1.0784912109375	2.27264404296875E-06	2.451026603012E-06	474553.53125	5.2325900469441E-05
1	212	87.413960779301	1.06887817382813	1.0687255859375	2.2589111328125E-06	2.41415614254947E-06	473115.375	5.25540817761794E-05
1	213	87.5146687790467	1.05880737304688	1.05926513671875	2.24639892578125E-06	2.37953213400033E-06	471539.1875	5.27809424966108E-05
1	214	87.6153767787924	1.04873657226563	1.04888916015625	2.2332763671875E-06	2.34245931096666E-06	469663.84375	5.30065117345657E-05
1	215	87.7160847785382	1.03866577148438	1.0382080078125	2.2198486328125E-06	2.30466457651346E-06	467693.1875	5.32307458342984E-05
1	216	87.8167927782839	1.02859497070313	1.02813720703125	2.20611572265625E-06	2.26818951887253E-06	466039.59375	5.34536084160209E-05
1	217	87.9175007780296	1.01852416992188	1.01806640625	2.19146728515625E-06	2.23105917029898E-06	464559.25	5.36750449100509E-05
1	218	88.0182087777754	1.00845336914063	1.00860595703125	2.176513671875E-06	2.19524463318521E-06	463404.40625	5.38949898327701E-05
1	219	88.1189167775211	0.998382568359375	0.99884033203125	2.15972900390625E-06	2.15722434404597E-06	462484.125	5.41133376827929E-05
1	220	88.2196247772669	0.988311767578125	0.9881591796875	2.14111328125E-06	2.11576070796582E-06	461516.53125	5.43299029232003E-05
1	221	88.3203327770126	0.978240966796875	0.9783935546875	2.120361328125E-06	2.07454786504968E-06	461427.75	5.45444854651578E-05
1	222	88.4210407767583	0.968170166015625	0.96832275390625	2.09442138671875E-06	2.02807564164686E-06	462334.28125	5.47567142348271E-05
1	223	88.5217487765041	0.958099365234375	0.95794677734375	2.06085205078125E-06	1.97418648895109E-06	464830.46875	5.49659489479382E-05
1	224	88.6224567762498	0.948028564453125	0.94818115234375	2.01568603515625E-06	1.9112355857942E-06	470401.21875	5.51712219021283E-05
1	225	88.7231647759955	0.937957763671875	0.9381103515625	1.9549560546875E-06	1.83396434749739E-06	479862.65625	5.53711579414085E-05
1	226	88.8238727757413	0.927886962890625	0.92803955078125	1.87286376953125E-06	1.73809166881256E-06	495518.96875	5.55639053345658E-05
1	227	88.924580775487	0.917816162109375	0.91796875	1.76239013671875E-06	1.61781906626857E-06	520865.8125	5.57469538762234E-05
1	228	89.0252887752328	0.907745361328125	0.908203125	1.6162109375E-06	1.46784771004604E-06	561933.5625	5.59170803171583E-05
1	229	89.1259967749785	0.897674560546875	0.89752197265625	1.42669677734375E-06	1.28049168779398E-06	629090.9375	5.60703010705765E-05
1	230	89.2267047747242	0.887603759765625	0.88714599609375	1.18988037109375E-06	1.05559752228146E-06	745575.8125	5.6202057749033E-05
1	231	89.32741277447	0.877532958984375	0.87799072265625	9.063720703125E-07	7.95786263552145E-07	968686.875	5.63076137041207E-05
1	232	89.4281207742157	0.867462158203125	0.8673095703125	5.8624267578125E-07	5.08453865677438E-07	1479437.875	5.63827707082964E-05
1	233	89.5288287739614	0.857391357421875	0.8575439453125	2.459716796875E-07	2.10931517585777E-07	3486352.5	5.64246765861753E-05
1	234	89.6295367737072	0.847320556640625	0.8477783203125	-8.63647460937506E-08	-7.32181533180665E-08	-9816255	5.64327128813602E-05
1	235	89.7302447734529	0.837249755859375	0.8380126953125	-3.86657714843749E-07	-3.24024085784913E-07	-2167324.25	5.64088950341102E-05
1	236	89.8309527731986	0.827178955078125	0.82733154296875	-6.2835693359375E-07	-5.1985949767186E-07	-1316658.625	5.63577850698493E-05
1	237	89.9316607729444	0.817108154296875	0.8172607421875	-7.98645019531249E-07	-6.52701203307515E-07	-1023309.1875	5.62859313504305E-05
1	238	90.0323687726901	0.807037353515625	0.80718994140625	-8.91723632812499E-07	-7.1979036420089E-07	-905201.9375	5.62008135602809E-05
1	239	90.1330767724359	0.796966552734375	0.79681396484375	-9.2041015625E-07	-7.33395609131549E-07	-865716.1875	5.61095657758415E-05
1	240	90.2337847721816	0.786895751953125	0.78704833984375	-9.002685546875E-07	-7.08554864559119E-07	-874237.3125	5.6017885071924E-05
1	241	90.3344927719273	0.776824951171875	0.77728271484375	-8.55102539062499E-07	-6.64656397475483E-07	-908993.5625	5.59294967388269E-05
1	242	90.4352007716731	0.766754150390625	0.7666015625	-8.026123046875E-07	-6.15283852312132E-07	-955133.0625	5.58460233150981E-05
1	243	90.5359087714188	0.756683349609375	0.7568359375	-7.60498046875E-07	-5.75572244088107E-07	-995184.625	5.57673156436067E-05
1	244	90.6366167711645	0.746612548828125	0.74652099609375	-7.421875E-07	-5.54058544821601E-07	-1005838.875	5.5691649322398E-05
1	245	90.7373247709103	0.736541748046875	0.736419677734375	-7.598876953125E-07	-5.59596230687021E-07	-969116.5	5.56160121050198E-05
1	246	90.838032770656	0.726470947265625	0.726348876953125	-8.23059082031249E-07	-5.97828034187842E-07	-882499.125	5.55363039893564E-05
1	247	90.9387407704018	0.716400146484375	0.71630859375	-9.37805175781251E-07	-6.71757902637182E-07	-763813.875	5.54476391698699E-05
1	248	91.0394487701475	0.706329345703125	0.70623779296875	-1.10443115234375E-06	-7.79991012223036E-07	-639458.4375	5.53448044229299E-05
1	249	91.1401567698932	0.696258544921875	0.6961669921875	-1.31622314453125E-06	-9.16311080345622E-07	-528912.625	5.52229139429983E-05
1	250	91.240864769639	0.686187744140625	0.68609619140625	-1.5496826171875E-06	-1.06323125237395E-06	-442733.375	5.50786062376574E-05
1	251	91.3415727693847	0.676116943359375	0.675994873046875	-1.78192138671875E-06	-1.20456968488725E-06	-379362.90625	5.49108444829471E-05
1	252	91.4422807691304	0.666046142578125	0.665985107421875	-1.98486328125E-06	-1.32188938550826E-06	-335531.96875	5.47211711818818E-05
1	253	91.5429887688762	0.655975341796875	0.65594482421875	-2.135009765625E-06	-1.40044858198962E-06	-307232.71875	5.45137190783862E-05
1	254	91.6436967686219	0.645904541015625	0.6458740234375	-2.216796875E-06	-1.43177157951868E-06	-291354.625	5.42945890629198E-05
1	255	91.7444047683676	0.635833740234375	0.6357421875	-2.22991943359375E-06	-1.41765383432357E-06	-285096.5	5.4070678743301E-05
1	256	91.8451127681134	0.625762939453125	0.625701904296875	-2.18536376953125E-06	-1.36738617584342E-06	-286314.78125	5.38483509444632E-05
1	257	91.9458207678591	0.615692138671875	0.61566162109375	-2.0989990234375E-06	-1.29227305478707E-06	-293312.03125	5.36326188012026E-05
1	258	92.0465287676049	0.605621337890625	0.605621337890625	-1.98974609375E-06	-1.20503273137729E-06	-304371.15625	5.34267346665729E-05
1	259	92.1472367673506	0.595550537109375	0.595550537109375	-1.8707275390625E-06	-1.11411270609096E-06	-318352.375	5.32323429069947E-05
1	260	92.2479447670963	0.585479736328125	0.585479736328125	-1.75201416015625E-06	-1.02576871086058E-06	-334175.25	5.30499237356707E-05
1	261	92.3486527668421	0.575408935546875	0.575408935546875	-1.63848876953125E-06	-9.4280102302946E-07	-351182.71875	5.28791970282327E-05
1	262	92.4493607665878	0.565338134765625	0.565277099609375	-1.53411865234375E-06	-8.67202118115529E-07	-368470.28125	5.27194461028557E-05
1	263	92.5500687663335	0.555267333984375	0.55523681640625	-1.43829345703125E-06	-7.98593475792586E-07	-386038.625	5.25697723787744E-05
1	264	92.6507767660793	0.545196533203125	0.545196533203125	-1.351318359375E-06	-7.36734079964663E-07	-403455.28125	5.24293027410749E-05
1	265	92.751484765825	0.535125732421875	0.5350341796875	-1.2725830078125E-06	-6.8087535964878E-07	-420431.6875	5.2297178626759E-05
1	266	92.8521927655707	0.525054931640625	0.525054931640625	-1.20025634765625E-06	-6.3020047491591E-07	-437452.34375	5.21726615261286E-05
1	267	92.9529007653165	0.514984130859375	0.5150146484375	-1.13555908203125E-06	-5.84829535910103E-07	-453534	5.20550456712954E-05
1	268	93.0536087650622	0.504913330078125	0.5048828125	-1.07635498046875E-06	-5.43433088751044E-07	-469067.21875	5.19436653121375E-05
1	269	93.154316764808	0.494842529296875	0.494842529296875	-1.02264404296875E-06	-5.06047740600479E-07	-483885.40625	5.1837971113855E-05
1	270	93.2550247645537	0.484771728515625	0.484771728515625	-9.735107421875E-07	-4.71930491130479E-07	-497962.375	5.17374573973939E-05
1	271	93.3557327642994	0.474700927734375	0.47467041015625	-9.28955078125E-07	-4.40947474089626E-07	-510972.4375	5.16416621394455E-05
1	272	93.4564407640452	0.464630126953125	0.464630126953125	-8.8775634765625E-07	-4.12478328826182E-07	-523375.75	5.15501815243624E-05
1	273	93.5571487637909	0.454559326171875	0.454559326171875	-8.4991455078125E-07	-3.86336580504576E-07	-534829.4375	5.14626844960731E-05
1	274	93.6578567635366	0.444488525390625	0.44451904296875	-8.1451416015625E-07	-3.62067027026569E-07	-545747.5	5.13788727403153E-05
1	275	93.7585647632824	0.434417724609375	0.434417724609375	-7.82165527343751E-07	-3.39786566883049E-07	-555403.8125	5.12984734086785E-05
1	276	93.8592727630281	0.424346923828125	0.42431640625	-7.5225830078125E-07	-3.19195549991491E-07	-564056.8125	5.12212100147735E-05
1	277	93.9599807627739	0.414276123046875	0.414276123046875	-7.2509765625E-07	-3.00390638585668E-07	-571338.375	5.11468206241261E-05
1	278	94.0606887625196	0.404205322265625	0.404205322265625	-7.0037841796875E-07	-2.83096682096584E-07	-577124.1875	5.10750396642834E-05
1	279	94.1613967622653	0.394134521484375	0.3941650390625	-6.7718505859375E-07	-2.66922654645896E-07	-582064	5.10056743223686E-05
1	280	94.2621047620111	0.384063720703125	0.384033203125	-6.55212402343749E-07	-2.51623305302928E-07	-586120.1875	5.09385827172082E-05
1	281	94.3628127617568	0.373992919921875	0.3740234375	-6.3446044921875E-07	-2.37303069638983E-07	-589514.1875	5.08736447955016E-05
1	282	94.4635207615025	0.363922119140625	0.36395263671875	-6.14318847656251E-07	-2.23582958369661E-07	-592449.125	5.0810762331821E-05
1	283	94.5642287612483	0.353851318359375	0.35382080078125	-5.9661865234375E-07	-2.11096079283379E-07	-593043.5	5.07497861690354E-05
1	284	94.664936760994	0.343780517578125	0.34381103515625	-5.7952880859375E-07	-1.99248390231332E-07	-593259.625	5.06905635120347E-05
1	285	94.7656447607397	0.333709716796875	0.333770751953125	-5.633544921875E-07	-1.88031251013854E-07	-592470.1875	5.06330143252853E-05
1	286	94.8663527604855	0.323638916015625	0.323638916015625	-5.4901123046875E-07	-1.77681386048789E-07	-589494.1875	5.05770003655925E-05
1	287	94.9670607602312	0.313568115234375	0.313568115234375	-5.352783203125E-07	-1.67846224030654E-07	-585803.875	5.05224052176345E-05
1	288	95.067768759977	0.303497314453125	0.303466796875	-5.22460937499999E-07	-1.58549553930243E-07	-580841.125	5.04691415699199E-05
1	289	95.1684767597227	0.293426513671875	0.29339599609375	-5.10253906249999E-07	-1.49706437468922E-07	-575000.0625	5.04171403008513E-05
1	290	95.2691847594684	0.283355712890625	0.283416748046875	-4.9896240234375E-07	-1.41414290055764E-07	-568012.25	5.03663213748951E-05
1	291	95.3698927592142	0.273284912109375	0.2733154296875	-4.89501953125E-07	-1.33788432776782E-07	-558354.125	5.03165501868352E-05
1	292	95.4706007589599	0.263214111328125	0.26324462890625	-4.8095703125E-07	-1.26609350559193E-07	-547335.0625	5.02676848554984E-05
1	293	95.5713087587056	0.253143310546875	0.253173828125	-4.742431640625E-07	-1.20065962505578E-07	-533848.125	5.0219583499711E-05
1	294	95.6720167584514	0.243072509765625	0.243011474609375	-4.681396484375E-07	-1.13763299225411E-07	-519100.40625	5.01721333421301E-05
1	295	95.7727247581971	0.233001708984375	0.2330322265625	-4.638671875E-07	-1.08095996154134E-07	-502368.4375	5.01252034155186E-05
1	296	95.8734327579429	0.222930908203125	0.222991943359375	-4.6051025390625E-07	-1.02690073333633E-07	-484227.96875	5.00786554766819E-05
1	297	95.9741407576886	0.212860107421875	0.21282958984375	-4.58984375E-07	-9.76854579448627E-08	-463696.8125	5.0032354920404E-05
1	298	96.0748487574343	0.202789306640625	0.202789306640625	-4.59899902343749E-07	-9.3262784162107E-08	-440942.28125	4.99860871059354E-05
1	299	96.1755567571801	0.192718505859375	0.192657470703125	-4.6356201171875E-07	-8.93086848918756E-08	-415602.375	4.99395864608232E-05
1	300	96.2762647569258	0.182647705078125	0.1826171875	-4.6966552734375E-07	-8.57689954614216E-08	-388823.9375	4.9892594688572E-05
1	301	96.3769727566715	0.172576904296875	0.172637939453125	-4.7882080078125E-07	-8.26626305183709E-08	-360548.15625	4.98448353027925E-05
1	302	96.4776807564173	0.162506103515625	0.16253662109375	-4.90417480468749E-07	-7.97107944094932E-08	-331425.03125	4.97960281791165E-05
1	303	96.578388756163	0.152435302734375	0.1524658203125	-5.035400390625E-07	-7.67726433537064E-08	-302787.875	4.97459805046674E-05
1	304	96.6790967559087	0.142364501953125	0.14239501953125	-5.1727294921875E-07	-7.36570910930823E-08	-275280.25	4.9694579502102E-05
1	305	96.7798047556545	0.132293701171875	0.13232421875	-5.3253173828125E-07	-7.04668465800751E-08	-248481.390625	4.96417160320561E-05
1	306	96.8805127554002	0.122222900390625	0.122314453125	-5.4962158203125E-07	-6.72266651235987E-08	-222543.03125	4.95872263854835E-05
1	307	96.981220755146	0.112152099609375	0.1121826171875	-5.71594238281251E-07	-6.41229362940976E-08	-196262.6875	4.95307685923763E-05
1	308	97.0819287548917	0.102081298828125	0.10211181640625	-6.0302734375E-07	-6.15762161260136E-08	-169331.984375	4.94716223329306E-05
1	309	97.1826367546374	0.092010498046875	0.092071533203125	-6.50939941406251E-07	-5.99330363115769E-08	-141443.984375	4.94084779347759E-05
1	310	97.2833447543832	0.081939697265625	0.082000732421875	-7.19299316406249E-07	-5.8983069095575E-08	-114000.8515625	4.93394800287206E-05
1	311	97.3840527541289	0.071868896484375	0.07196044921875	-8.1512451171875E-07	-5.86567274751815E-08	-88281.5390625	4.92622166348156E-05
1	312	97.4847607538746	0.061798095703125	0.061859130859375	-9.4146728515625E-07	-5.82383457015112E-08	-65705.0234375	4.91737664560787E-05
1	313	97.5854687536204	0.051727294921875	0.05181884765625	-1.10137939453125E-06	-5.70722065162954E-08	-47049.046875	4.90708989673294E-05
1	314	97.6861767533661	0.041656494140625	0.0417724609375	-1.28936767578125E-06	-5.38600630761721E-08	-32397.634765625	4.89505146106239E-05
1	315	97.7868847531118	0.031585693359375	0.0316802978515625	-1.49688720703125E-06	-4.74218317947361E-08	-21164.1171875	4.88102159579284E-05
1	316	97.8875927528576	0.021514892578125	0.0215972900390625	-1.70440673828125E-06	-3.68105652626127E-08	-12671.44140625	4.8649020754965E-05
1	317	97.9883007526033	0.011444091796875	0.011566162109375	-1.89208984375E-06	-2.18842171051392E-08	-6112.9033203125	4.8467922169948E-05
1	318	98.0890087523491	0.001373291015625	0.00145568847656249	-2.04071044921875E-06	-2.97063862397806E-09	-713.324401855469	4.8269888793584E-05
1	319	98.1897167520948	-0.008697509765625	-0.00859985351562501	-2.13775634765625E-06	1.83843908985182E-08	4022.84057617188	4.80594862892758E-05
1	320	98.2904247518405	-0.018768310546875	-0.01861572265625	-2.18170166015625E-06	4.0613951313162E-08	8532.662109375	4.7841986088315E-05
1	321	98.3911327515863	-0.028839111328125	-0.02872314453125	-2.18017578125E-06	6.26215026500176E-08	13174.693359375	4.76223467558157E-05
1	322	98.491840751332	-0.038909912109375	-0.038775634765625	-2.14569091796875E-06	8.32005184747686E-08	18071.3984375	4.74045227747411E-05
1	323	98.5925487510777	-0.048980712890625	-0.0488250732421875	-2.0928955078125E-06	1.02185779837782E-07	23328.958984375	4.71910934720654E-05
1	324	98.6932567508235	-0.059051513671875	-0.058990478515625	-2.0318603515625E-06	1.19860416702977E-07	29032.744140625	4.69833939860109E-05
1	325	98.7939647505692	-0.069122314453125	-0.06903076171875	-1.9683837890625E-06	1.35879020035645E-07	35069.76953125	4.67819663754199E-05
1	326	98.894672750315	-0.079193115234375	-0.079132080078125	-1.907958984375E-06	1.50980753232943E-07	41474.73046875	4.6586777898483E-05
1	327	98.9953807500607	-0.089263916015625	-0.089141845703125	-1.85302734375E-06	1.65182271416597E-07	48106.0625	4.63973956357222E-05
1	328	99.0960887498064	-0.099334716796875	-0.0992431640625	-1.80389404296875E-06	1.79024141289119E-07	55016.07421875	4.62132557004225E-05
1	329	99.1967967495522	-0.109405517578125	-0.10931396484375	-1.76116943359375E-06	1.92520417385822E-07	62068.96484375	4.60337396361865E-05
1	330	99.2975047492979	-0.119476318359375	-0.11932373046875	-1.7254638671875E-06	2.05888781579233E-07	69154.5859375	4.58581744169351E-05
1	331	99.3982127490436	-0.129547119140625	-0.129486083984375	-1.69464111328125E-06	2.19432422454702E-07	76409.15625	4.5685959776165E-05
1	332	99.4989207487894	-0.139617919921875	-0.1395263671875	-1.66961669921875E-06	2.32955542855962E-07	83567.90625	4.55165536550339E-05
1	333	99.5996287485351	-0.149688720703125	-0.149566650390625	-1.64886474609375E-06	2.46615172727616E-07	90708.8671875	4.53494540124666E-05
1	334	99.7003367482808	-0.159759521484375	-0.15960693359375	-1.632080078125E-06	2.60491304970856E-07	97793.5703125	4.51842461188789E-05
1	335	99.8010447480266	-0.169830322265625	-0.169677734375	-1.61956787109375E-06	2.74804591526845E-07	104767.296875	4.50205116067082E-05
1	336	99.9017527477723	-0.179901123046875	-0.1798095703125	-1.61041259765625E-06	2.89567594791151E-07	111654.3515625	4.48578721261583E-05
1	337	100.002460747518	-0.189971923828125	-0.189788818359375	-1.60491943359375E-06	3.04595744182734E-07	118254.4296875	4.46959675173275E-05
1	338	100.103168747264	-0.200042724609375	-0.199920654296875	-1.6033935546875E-06	3.20551492904997E-07	124685.953125	4.4534415792441E-05
1	339	100.20387674701	-0.189971923828125	-0.1898193359375	-1.41387939453125E-06	2.68381626256087E-07	134254.265625	4.43824828835204E-05
2	340	100.304584746755	-0.179901123046875	-0.179718017578125	-1.279296875E-06	2.29912686222633E-07	140481.875	4.42468699475285E-05
2	341	100.405292746501	-0.169830322265625	-0.169708251953125	-1.1700439453125E-06	1.98566098674746E-07	145044.34375	4.41235351900104E-05
2	342	100.506000746247	-0.159759521484375	-0.15960693359375	-1.07635498046875E-06	1.71793715253443E-07	148284.671875	4.40104231529403E-05
2	343	100.606708745992	-0.149688720703125	-0.149566650390625	-9.94262695312501E-07	1.48708537039965E-07	150429.71875	4.39061586803291E-05
2	344	100.707416745738	-0.139617919921875	-0.139434814453125	-9.2132568359375E-07	1.28464876070211E-07	151341.515625	4.38097013102379E-05
2	345	100.808124745484	-0.129547119140625	-0.12945556640625	-8.55102539062499E-07	1.10697783384239E-07	151391.859375	4.37202506873291E-05
2	346	100.90883274523	-0.119476318359375	-0.119384765625	-7.952880859375E-07	9.49452854115407E-08	150115.125	4.36371446994599E-05
2	347	101.009540744975	-0.109405517578125	-0.109283447265625	-7.38525390625E-07	8.07086024678938E-08	147975.203125	4.35599140473641E-05
2	348	101.110248744721	-0.099334716796875	-0.099212646484375	-6.84204101562499E-07	6.78817002608412E-08	145004.453125	4.34882713307161E-05
2	349	101.210956744467	-0.089263916015625	-0.0892333984375	-6.2835693359375E-07	5.60704229712883E-08	142010.6875	4.34221801697277E-05
2	350	101.311664744213	-0.079193115234375	-0.079132080078125	-5.7098388671875E-07	4.51831425607452E-08	138588.984375	4.33617897215299E-05
2	351	101.412372743958	-0.069122314453125	-0.069061279296875	-5.0689697265625E-07	3.50069555565824E-08	136243.21875	4.33075110777281E-05
2	352	101.513080743704	-0.059051513671875	-0.05902099609375	-4.34265136718751E-07	2.56307615131846E-08	135910.046875	4.32601227657869E-05
2	353	101.61378874345	-0.048980712890625	-0.048828125	-3.4820556640625E-07	1.70022254053492E-08	140227.875	4.32207198173273E-05
2	354	101.714496743196	-0.038909912109375	-0.0387420654296875	-2.4261474609375E-07	9.39939592825567E-09	159685.546875	4.31909720646217E-05
2	355	101.815204742941	-0.028839111328125	-0.0287078857421875	-1.11999511718749E-07	3.21526916202686E-09	256321.53125	4.31731132266577E-05
2	356	101.915912742687	-0.018768310546875	-0.0186370849609375	4.94384765624994E-08	-9.2138907614725E-10	-376975.3125	4.31699627370108E-05
2	357	102.016620742433	-0.008697509765625	-0.008587646484375	2.42004394531251E-07	-2.07824801812251E-09	-35485.5	4.31846383435186E-05
2	358	102.117328742179	0.001373291015625	0.0014617919921875	4.6112060546875E-07	6.74062416994303E-10	3170.08618164063	4.32200431532692E-05
2	359	102.218036741924	0.011444091796875	0.011566162109375	6.96716308593751E-07	8.05833355599361E-09	16600.962890625	4.32783454016317E-05
2	360	102.31874474167	0.021514892578125	0.0216217041015625	9.307861328125E-07	2.012518152128E-08	23229.509765625	4.3360298150219E-05
2	361	102.419452741416	0.031585693359375	0.031689453125	1.1419677734375E-06	3.61883358834802E-08	27749.8671875	4.34646681242157E-05
2	362	102.520160741161	0.041656494140625	0.0417449951171875	1.312255859375E-06	5.47801128902847E-08	31811.630859375	4.35882502642926E-05
2	363	102.620868740907	0.051727294921875	0.0517578125	1.4276123046875E-06	7.38900851615654E-08	36254.8125	4.37262133345939E-05
2	364	102.721576740653	0.061798095703125	0.06182861328125	1.4886474609375E-06	9.20410059279675E-08	41533.41796875	4.38730567111634E-05
2	365	102.822284740399	0.071868896484375	0.071929931640625	1.50146484375E-06	1.08000257625918E-07	47906.50390625	4.40236217400525E-05
2	366	102.922992740144	0.081939697265625	0.08203125	1.4801025390625E-06	1.21414657883179E-07	55422.68359375	4.41737538494635E-05
2	367	103.02370073989	0.092010498046875	0.092071533203125	1.435546875E-06	1.32172999656177E-07	64136.90234375	4.43205717601813E-05
2	368	103.124408739636	0.102081298828125	0.102142333984375	1.38153076171875E-06	1.41112778351271E-07	73934.171875	4.44624201918487E-05
2	369	103.225116739382	0.112152099609375	0.112213134765625	1.32293701171875E-06	1.48450908454834E-07	84821.2265625	4.45986006525345E-05
2	370	103.325824739127	0.122222900390625	0.122314453125	1.2646484375E-06	1.54684784092751E-07	96718.1484375	4.47288985014893E-05
2	371	103.426532738873	0.132293701171875	0.132354736328125	1.21124267578125E-06	1.60313703645443E-07	109271.859375	4.48535683972295E-05
2	372	103.527240738619	0.142364501953125	0.142333984375	1.163330078125E-06	1.65581397482129E-07	122350.4765625	4.49731378466822E-05
2	373	103.627948738365	0.152435302734375	0.1524658203125	1.12091064453125E-06	1.70900548823738E-07	136019.609375	4.5088159822626E-05
2	374	103.72865673811	0.162506103515625	0.162506103515625	1.08367919921875E-06	1.76104478555317E-07	149957.765625	4.51991691079456E-05
2	375	103.829364737856	0.172576904296875	0.172607421875	1.0504150390625E-06	1.8130941725758E-07	164323.078125	4.53066277259495E-05
2	376	103.930072737602	0.182647705078125	0.1827392578125	1.02203369140625E-06	1.86765674925482E-07	178799.65625	4.54109831480309E-05
2	377	104.030780737348	0.192718505859375	0.192779541015625	9.97314453125001E-07	1.92261808251715E-07	193298.671875	4.5512668293668E-05
2	378	104.131488737093	0.202789306640625	0.20281982421875	9.7503662109375E-07	1.97756762077006E-07	208012.515625	4.56119814771228E-05
2	379	104.232196736839	0.212860107421875	0.21295166015625	9.56115722656251E-07	2.03606433046843E-07	222725.8125	4.57092246506363E-05
2	380	104.332904736585	0.222930908203125	0.22296142578125	9.3994140625E-07	2.09570671927395E-07	237207.796875	4.58046961284708E-05
2	381	104.43361273633	0.233001708984375	0.2330322265625	9.26513671875E-07	2.15907533629434E-07	251515.171875	4.58986796729732E-05
2	382	104.534320736076	0.243072509765625	0.243011474609375	9.14916992187501E-07	2.22335330590795E-07	265610.40625	4.59914044768084E-05
2	383	104.635028735822	0.253143310546875	0.25311279296875	9.03930664062499E-07	2.28796409373899E-07	280013.5	4.60829905932769E-05
2	384	104.735736735568	0.263214111328125	0.263214111328125	8.93554687500001E-07	2.35196196740617E-07	294569.6875	4.61734998680186E-05
2	385	104.836444735313	0.273284912109375	0.27325439453125	8.8470458984375E-07	2.4174940449484E-07	308865.125	4.62630450783763E-05
2	386	104.937152735059	0.283355712890625	0.283355712890625	8.76770019531251E-07	2.48437800109969E-07	323181.34375	4.6351742639672E-05
2	387	105.037860734805	0.293426513671875	0.293365478515625	8.7005615234375E-07	2.55244430036328E-07	337179.9375	4.64397016912699E-05
2	388	105.138568734551	0.303497314453125	0.303436279296875	8.642578125E-07	2.62247169757757E-07	351094.625	4.65270313725341E-05
2	389	105.239276734296	0.313568115234375	0.31353759765625	8.59375E-07	2.69446360334769E-07	364843.78125	4.66138226329349E-05
2	390	105.339984734042	0.323638916015625	0.3236083984375	8.5479736328125E-07	2.7661960189107E-07	378579.09375	4.6700137318112E-05
2	391	105.440692733788	0.333709716796875	0.333740234375	8.50524902343749E-07	2.83854376448289E-07	392393.25	4.67860081698745E-05
2	392	105.541400733534	0.343780517578125	0.343780517578125	8.46252441406251E-07	2.90925100898676E-07	406238.75	4.68714461021591E-05
2	393	105.642108733279	0.353851318359375	0.353851318359375	8.4228515625E-07	2.98043715929452E-07	420108.6875	4.69564729428384E-05
2	394	105.742816733025	0.363922119140625	0.363983154296875	8.39843749999999E-07	3.05688956814265E-07	433393.90625	4.70411723654252E-05
2	395	105.843524732771	0.373992919921875	0.373992919921875	8.3831787109375E-07	3.13524935791065E-07	446123.03125	4.71256753371563E-05
2	396	105.944232732517	0.384063720703125	0.38409423828125	8.3770751953125E-07	3.21758619747925E-07	458506.40625	4.72100691695232E-05
2	397	106.044940732262	0.394134521484375	0.3941650390625	8.37097167968751E-07	3.29954445987823E-07	470871.3125	4.72944047942292E-05
2	398	106.145648732008	0.404205322265625	0.4041748046875	8.36791992187499E-07	3.3821024203462E-07	483005.125	4.73786894872319E-05
2	399	106.246356731754	0.414276123046875	0.414306640625	8.37097167968751E-07	3.46814914564675E-07	494932.5625	4.74629778182134E-05
2	400	106.347064731499	0.424346923828125	0.424346923828125	8.3740234375E-07	3.55349101255342E-07	506742	4.75472952530254E-05
2	401	106.447772731245	0.434417724609375	0.43438720703125	8.3831787109375E-07	3.64154573162523E-07	518165.28125	4.76316745334771E-05
2	402	106.548480730991	0.444488525390625	0.44451904296875	8.39843749999999E-07	3.73326514591099E-07	529287.8125	4.77161775052082E-05
2	403	106.649188730737	0.454559326171875	0.454559326171875	8.4197998046875E-07	3.82729837156148E-07	539869.5625	4.78008623758797E-05
2	404	106.749896730482	0.464630126953125	0.464630126953125	8.4503173828125E-07	3.92627185874517E-07	549837.5	4.78858091810253E-05
2	405	106.850604730228	0.474700927734375	0.474700927734375	8.47473144531249E-07	4.0229627984445E-07	560136.875	4.7971036110539E-05
2	406	106.951312729974	0.484771728515625	0.484771728515625	8.50830078125001E-07	4.12458376786162E-07	569763.25	4.80565504403785E-05
2	407	107.05202072972	0.494842529296875	0.494781494140625	8.5479736328125E-07	4.22937915800503E-07	578829	4.81424358440563E-05
2	408	107.152728729465	0.504913330078125	0.50494384765625	8.5906982421875E-07	4.33782020081708E-07	587779.75	4.82287359773181E-05
2	409	107.253436729211	0.514984130859375	0.514984130859375	8.64562988281251E-07	4.45236224777545E-07	595658.3125	4.83155272377189E-05
2	410	107.354144728957	0.525054931640625	0.524993896484375	8.7127685546875E-07	4.57415012533602E-07	602556.9375	4.84029333165381E-05
2	411	107.454852728703	0.535125732421875	0.53509521484375	8.80126953125E-07	4.70951704301115E-07	607975.0625	4.84911251987796E-05
2	412	107.555560728448	0.545196533203125	0.545135498046875	8.9141845703125E-07	4.8594381496514E-07	611537.1875	4.85803284391295E-05
2	413	107.656268728194	0.555267333984375	0.55523681640625	9.051513671875E-07	5.02573357152869E-07	613418.75	4.86707940581255E-05
2	414	107.75697672794	0.565338134765625	0.56524658203125	9.24072265625001E-07	5.22328662100335E-07	611690.875	4.87629040435422E-05
2	415	107.857684727686	0.575408935546875	0.575347900390625	9.4940185546875E-07	5.46236378795584E-07	606010.9375	4.88572404719889E-05
2	416	107.958392727431	0.585479736328125	0.58544921875	9.8480224609375E-07	5.76551713038498E-07	594484.0625	4.89546364406124E-05
2	417	108.059100727177	0.595550537109375	0.595550537109375	1.0357666015625E-06	6.16851309587219E-07	574985.3125	4.90563797939103E-05
2	418	108.159808726923	0.605621337890625	0.605560302734375	1.10748291015625E-06	6.70647636979993E-07	546789.8125	4.91643004352227E-05
2	419	108.260516726668	0.615692138671875	0.615631103515625	1.207275390625E-06	7.43236228117894E-07	509934.3125	4.92808576382231E-05
2	420	108.361224726414	0.625762939453125	0.625762939453125	1.3421630859375E-06	8.3987589505341E-07	466234.65625	4.94092309963889E-05
2	421	108.46193272616	0.635833740234375	0.635833740234375	1.517333984375E-06	9.64772198130959E-07	419046.65625	4.95532185595948E-05
2	422	108.562640725906	0.645904541015625	0.645904541015625	1.73614501953125E-06	1.12138388885796E-06	372033.75	4.97170440212358E-05
2	423	108.663348725651	0.655975341796875	0.65594482421875	1.99462890625E-06	1.30836644984811E-06	328855.59375	4.99049019708764E-05
2	424	108.764056725397	0.666046142578125	0.66595458984375	2.2857666015625E-06	1.52221673488384E-06	291348.46875	5.01204376632813E-05
2	425	108.864764725143	0.676116943359375	0.67608642578125	2.5885009765625E-06	1.75005027358566E-06	261188.421875	5.03658775414806E-05
2	426	108.965472724889	0.686187744140625	0.68609619140625	2.8814697265625E-06	1.97696545001236E-06	238106.328125	5.06413125549443E-05
2	427	109.066180724634	0.696258544921875	0.696197509765625	3.13812255859375E-06	2.18475315705291E-06	221851.59375	5.09444216731936E-05
2	428	109.16688872438	0.706329345703125	0.70623779296875	3.33831787109375E-06	2.35764628087054E-06	211554.984375	5.12705373694189E-05
2	429	109.267596724126	0.716400146484375	0.71630859375	3.4674072265625E-06	2.48373362410348E-06	206583.34375	5.16132313350681E-05
2	430	109.368304723872	0.726470947265625	0.726348876953125	3.5284423828125E-06	2.56288012678851E-06	205855.390625	5.19655004609376E-05
2	431	109.469012723617	0.736541748046875	0.736419677734375	3.5345458984375E-06	2.60290903497662E-06	208349.171875	5.23211529070977E-05
2	432	109.569720723363	0.746612548828125	0.746429443359375	3.507080078125E-06	2.6177876861766E-06	212835.015625	5.26757248735521E-05
2	433	109.670428723109	0.756683349609375	0.7568359375	3.46527099609375E-06	2.62264165939996E-06	218405.984375	5.30268116563093E-05
2	434	109.771136722855	0.766754150390625	0.76690673828125	3.42926025390625E-06	2.62992284660868E-06	223636.203125	5.33739803358912E-05
2	435	109.8718447226	0.776824951171875	0.77728271484375	3.41400146484375E-06	2.65364428742032E-06	227674.984375	5.37185660505202E-05
2	436	109.972552722346	0.786895751953125	0.7867431640625	3.4320068359375E-06	2.70010787062347E-06	229237.078125	5.40632900083438E-05
2	437	110.073260722092	0.796966552734375	0.79681396484375	3.49273681640625E-06	2.78306151813013E-06	228134.5625	5.44119757250883E-05
2	438	110.173968721837	0.807037353515625	0.806884765625	3.60626220703125E-06	2.90983803097333E-06	223745.453125	5.47694398846943E-05
2	439	110.274676721583	0.817108154296875	0.8172607421875	3.7738037109375E-06	3.08418157146662E-06	216561.546875	5.51410557818599E-05
2	440	110.375384721329	0.827178955078125	0.82672119140625	3.9923095703125E-06	3.30052671415615E-06	207078.4375	5.55321093997918E-05
2	441	110.476092721075	0.837249755859375	0.83770751953125	4.24591064453125E-06	3.5568311886891E-06	197297.5	5.59469372092281E-05
2	442	110.57680072082	0.847320556640625	0.8477783203125	4.51507568359375E-06	3.82778307539411E-06	187766.140625	5.63880894333124E-05
2	443	110.677508720566	0.857391357421875	0.8575439453125	4.771728515625E-06	4.0919667299022E-06	179713.484375	5.6855715229176E-05
2	444	110.778216720312	0.867462158203125	0.8673095703125	4.99267578125E-06	4.33019522461109E-06	173716.390625	5.73473917029332E-05
2	445	110.878924720058	0.877532958984375	0.87799072265625	5.145263671875E-06	4.51749338026275E-06	170640.578125	5.7857880165102E-05
2	446	110.979632719803	0.887603759765625	0.8880615234375	5.224609375E-06	4.63977448816877E-06	169976.640625	5.83800429012626E-05
2	447	111.080340719549	0.897674560546875	0.89752197265625	5.2276611328125E-06	4.69194037577836E-06	171687.109375	5.89063565712422E-05
2	448	111.181048719295	0.907745361328125	0.908203125	5.1727294921875E-06	4.6978889258753E-06	175575.234375	5.94300581724383E-05
2	449	111.281756719041	0.917816162109375	0.91827392578125	5.0750732421875E-06	4.66030724055599E-06	180938.0625	5.99460763623938E-05
2	450	111.382464718786	0.927886962890625	0.927734375	4.949951171875E-06	4.59223974758061E-06	187422.953125	6.04508750257082E-05
2	451	111.483172718532	0.937957763671875	0.93841552734375	4.82086181640625E-06	4.52397125627613E-06	194657.21875	6.09428752795793E-05
2	452	111.583880718278	0.948028564453125	0.94818115234375	4.69268798828125E-06	4.44951820099959E-06	202055.015625	6.14219243288971E-05
2	453	111.684588718024	0.958099365234375	0.95794677734375	4.57183837890625E-06	4.37957805843325E-06	209532.078125	6.18884296272881E-05
2	454	111.785296717769	0.968170166015625	0.96832275390625	4.45953369140625E-06	4.31826765634469E-06	217135.4375	6.23431915300898E-05
2	455	111.886004717515	0.978240966796875	0.9783935546875	4.3585205078125E-06	4.26434826295008E-06	224478.359375	6.2787214119453E-05
2	456	111.986712717261	0.988311767578125	0.98846435546875	4.2669677734375E-06	4.21774529968388E-06	231655	6.3221545133274E-05
2	457	112.087420717006	0.998382568359375	0.99853515625	4.1839599609375E-06	4.17783121520188E-06	238657.921875	6.36470795143396E-05
2	458	112.188128716752	1.00845336914063	1.00860595703125	4.1094970703125E-06	4.14486294175731E-06	245432.953125	6.40646903775632E-05
2	459	112.288836716498	1.01852416992188	1.01837158203125	4.04144287109375E-06	4.11569044445059E-06	251982.171875	6.44751271465793E-05
2	460	112.389544716244	1.02859497070313	1.02813720703125	3.9788818359375E-06	4.09083622798789E-06	258398.546875	6.48789791739546E-05
2	461	112.490252715989	1.03866577148438	1.038818359375	3.922119140625E-06	4.07436937166494E-06	264861.5	6.52768285362981E-05
2	462	112.590960715735	1.04873657226563	1.048583984375	3.870849609375E-06	4.05891069021891E-06	270892.46875	6.56692354823463E-05
2	463	112.691668715481	1.05880737304688	1.058349609375	3.82415771484375E-06	4.04729598812992E-06	276753.65625	6.6056709329132E-05
2	464	112.792376715227	1.06887817382813	1.0693359375	3.7811279296875E-06	4.04329603043152E-06	282808.71875	6.64396648062393E-05
2	465	112.893084714972	1.07894897460938	1.07940673828125	3.741455078125E-06	4.03855165131972E-06	288499.1875	6.68184584355913E-05
2	466	112.993792714718	1.08901977539063	1.08856201171875	3.704833984375E-06	4.03294143325184E-06	293822.09375	6.7193410359323E-05
2	467	113.094500714464	1.09909057617188	1.09893798828125	3.6712646484375E-06	4.03449212171836E-06	299335	6.75648261676542E-05
2	468	113.19520871421	1.10916137695313	1.1090087890625	3.64013671875E-06	4.03694366468699E-06	304661.3125	6.79329823469743E-05
2	469	113.295916713955	1.11923217773438	1.119384765625	3.61083984375E-06	4.04191905545304E-06	310006.78125	6.82980971760117E-05
2	470	113.396624713701	1.12930297851563	1.12884521484375	3.58489990234375E-06	4.046797130286E-06	314888.90625	6.86604325892404E-05
2	471	113.497332713447	1.13937377929688	1.13922119140625	3.5614013671875E-06	4.05722357754712E-06	319880.0625	6.9020279624965E-05
2	472	113.598040713193	1.14944458007813	1.14959716796875	3.5394287109375E-06	4.06891740567517E-06	324797.375	6.93778347340412E-05
2	473	113.698748712938	1.15951538085938	1.15966796875	3.51959228515625E-06	4.08155847253511E-06	329489.3125	6.97332798154093E-05
2	474	113.799456712684	1.16958618164063	1.16943359375	3.5009765625E-06	4.09415952162817E-06	334030.6875	7.00867967680097E-05
2	475	113.90016471243	1.17965698242188	1.17950439453125	3.48419189453125E-06	4.10961956731626E-06	338530.25	7.04385238350369E-05
2	476	114.000872712175	1.18972778320313	1.1895751953125	3.4674072265625E-06	4.12474173572264E-06	343073.40625	7.07885701558553E-05
2	477	114.101580711921	1.19979858398438	1.19903564453125	3.453369140625E-06	4.14071246268577E-06	347207.5	7.11370521457866E-05
2	478	114.202288711667	1.20986938476563	1.209716796875	3.44024658203125E-06	4.16172406403348E-06	351636.65625	7.1484173531644E-05
2	479	114.302996711413	1.21994018554688	1.219482421875	3.428955078125E-06	4.18155059378478E-06	355642.5625	7.18300652806647E-05
2	480	114.403704711158	1.23001098632813	1.23016357421875	3.41888427734375E-06	4.20578680859762E-06	359814.34375	7.21748874639161E-05
2	481	114.504412710904	1.24008178710938	1.2396240234375	3.409423828125E-06	4.22640368924476E-06	363587.5625	7.25187201169319E-05
2	482	114.60512071065	1.25015258789063	1.25	3.39996337890625E-06	4.24995414505247E-06	367651.03125	7.28615996195003E-05
2	483	114.705828710396	1.26022338867188	1.2603759765625	3.39080810546875E-06	4.27369286626345E-06	371703.75	7.32035405235365E-05
2	484	114.806536710141	1.27029418945313	1.27044677734375	3.3837890625E-06	4.29892361353268E-06	375450.96875	7.35446665203199E-05
2	485	114.907244709887	1.28036499023438	1.2799072265625	3.3782958984375E-06	4.32390515925363E-06	378861.8125	7.38851667847484E-05
2	486	115.007952709633	1.29043579101563	1.2908935546875	3.3740234375E-06	4.35550509791938E-06	382597.6875	7.42251722840592E-05
2	487	115.108660709379	1.30050659179688	1.30035400390625	3.37066650390625E-06	4.38305960415164E-06	385785.4375	7.45647921576165E-05
2	488	115.209368709124	1.31057739257813	1.3104248046875	3.369140625E-06	4.41500560555141E-06	388949.28125	7.49041719245724E-05
2	489	115.31007670887	1.32064819335938	1.32080078125	3.36761474609375E-06	4.44794795839698E-06	392206.625	7.52433916204609E-05
2	490	115.410784708616	1.33071899414063	1.33026123046875	3.36822509765625E-06	4.48061928182142E-06	394944.28125	7.55825676606037E-05
2	491	115.511492708362	1.34078979492188	1.34063720703125	3.37005615234375E-06	4.51802225143183E-06	397808.59375	7.59218673920259E-05
2	492	115.612200708107	1.35086059570313	1.3507080078125	3.37371826171875E-06	4.55690815215348E-06	400361.84375	7.62614436098374E-05
2	493	115.712908707853	1.36093139648438	1.3604736328125	3.37982177734375E-06	4.59815828435239E-06	402528.21875	7.66015145927668E-05
2	494	115.813616707599	1.37100219726563	1.37054443359375	3.387451171875E-06	4.64265212940518E-06	404594.625	7.69422695157118E-05
2	495	115.914324707344	1.38107299804688	1.380615234375	3.3966064453125E-06	4.68940652353922E-06	406469	7.72838757256977E-05
2	496	116.01503270709	1.39114379882813	1.39129638671875	3.4075927734375E-06	4.74097123515094E-06	408293.03125	7.7626493293792E-05
2	497	116.115740706836	1.40121459960938	1.4007568359375	3.4197998046875E-06	4.79030768474331E-06	409602	7.79702822910622E-05
2	498	116.216448706582	1.41128540039063	1.4111328125	3.4344482421875E-06	4.84646261611488E-06	410876.125	7.8315417340491E-05
2	499	116.317156706327	1.42135620117188	1.42120361328125	3.450927734375E-06	4.90447064294131E-06	411832.34375	7.86621239967644E-05
2	500	116.417864706073	1.43142700195313	1.4312744140625	3.47076416015625E-06	4.9676159505907E-06	412380.21875	7.90106641943567E-05
2	501	116.518572705819	1.44149780273438	1.44134521484375	3.49517822265625E-06	5.03775845572818E-06	412381.03125	7.93614235590212E-05
2	502	116.619280705565	1.45156860351563	1.451416015625	3.524169921875E-06	5.11503640154842E-06	411846.21875	7.9714875028003E-05
2	503	116.71998870531	1.46163940429688	1.46148681640625	3.55712890625E-06	5.19869672643836E-06	410861.375	8.00714478828013E-05
2	504	116.820696705056	1.47171020507813	1.47186279296875	3.59527587890625E-06	5.29175258634496E-06	409388	8.04316005087458E-05
2	505	116.921404704802	1.48178100585938	1.4813232421875	3.63861083984375E-06	5.38995846000034E-06	407112.3125	8.07958567747846E-05
2	506	117.022112704548	1.49185180664063	1.49169921875	3.6883544921875E-06	5.50191543879919E-06	404434.90625	8.1164798757527E-05
2	507	117.122820704293	1.50192260742188	1.50115966796875	3.7445068359375E-06	5.62110244572978E-06	400896.5	8.15390740172006E-05
2	508	117.223528704039	1.49185180664063	1.49169921875	3.55194091796875E-06	5.29842736796127E-06	419967.375	8.19064734969288E-05
2	509	117.324236703785	1.48178100585938	1.48193359375	3.41461181640625E-06	5.06022797708283E-06	433997.6875	8.22572692413814E-05
2	510	117.424944703531	1.47171020507813	1.4715576171875	3.306884765625E-06	4.86627141071949E-06	444998.15625	8.25957249617204E-05
2	511	117.525652703276	1.46163940429688	1.4617919921875	3.2183837890625E-06	4.7046073632373E-06	454200.65625	8.29242999316193E-05
2	512	117.626360703022	1.45156860351563	1.45172119140625	3.14453125E-06	4.56498264611582E-06	461665.40625	8.32446967251599E-05
2	513	117.727068702768	1.44149780273438	1.4404296875	3.08013916015625E-06	4.4367238842824E-06	467650.84375	8.35581304272637E-05
2	514	117.827776702513	1.43142700195313	1.43096923828125	3.02581787109375E-06	4.32985189036117E-06	472919.84375	8.38655905681662E-05
2	515	117.928484702259	1.42135620117188	1.4208984375	2.97821044921875E-06	4.2317346924392E-06	477098.0625	8.41679211589508E-05
2	516	118.029192702005	1.41128540039063	1.41082763671875	2.93670654296875E-06	4.14318674302194E-06	480411.5	8.44657624838874E-05
2	517	118.129900701751	1.40121459960938	1.4013671875	2.90069580078125E-06	4.06493973059696E-06	483114.15625	8.47596966195852E-05
2	518	118.230608701496	1.39114379882813	1.3909912109375	2.86865234375E-06	3.9902702155814E-06	484893.625	8.50502037792467E-05
2	519	118.331316701242	1.38107299804688	1.3812255859375	2.838134765625E-06	3.92010406358168E-06	486666.6875	8.53375677252188E-05
2	520	118.432024700988	1.37100219726563	1.37054443359375	2.81097412109375E-06	3.85256498702802E-06	487569.21875	8.56220212881453E-05
2	521	118.532732700734	1.36093139648438	1.36077880859375	2.78594970703125E-06	3.79106108994165E-06	488443.4375	8.59038482303731E-05
2	522	118.633440700479	1.35086059570313	1.35101318359375	2.7618408203125E-06	3.73128318642557E-06	489171.28125	8.61832013470121E-05
2	523	118.734148700225	1.34078979492188	1.34063720703125	2.73956298828125E-06	3.67275993085059E-06	489361.71875	8.64602188812569E-05
2	524	118.834856699971	1.33071899414063	1.33026123046875	2.71881103515625E-06	3.61672869075846E-06	489280.53125	8.67350681801327E-05
2	525	118.935564699717	1.32064819335938	1.32049560546875	2.6983642578125E-06	3.56317809746542E-06	489368.9375	8.70078438310884E-05
2	526	119.036272699462	1.31057739257813	1.31103515625	2.6788330078125E-06	3.51204425896867E-06	489405.34375	8.72786113177426E-05
2	527	119.136980699208	1.30050659179688	1.30035400390625	2.65899658203125E-06	3.45763669429289E-06	489039.40625	8.75473924679682E-05
2	528	119.237688698954	1.29043579101563	1.290283203125	2.63916015625E-06	3.40526389663864E-06	488899.1875	8.78141727298498E-05
2	529	119.3383966987	1.28036499023438	1.2799072265625	2.61932373046875E-06	3.3524911486893E-06	488640.375	8.80789593793452E-05
2	530	119.439104698445	1.27029418945313	1.27044677734375	2.60009765625E-06	3.30328566633398E-06	488615.03125	8.83417815202847E-05
2	531	119.539812698191	1.26022338867188	1.2603759765625	2.581787109375E-06	3.2540224310651E-06	488179.65625	8.86027046362869E-05
2	532	119.640520697937	1.25015258789063	1.25091552734375	2.5640869140625E-06	3.20745607496065E-06	487860.0625	8.88618233148009E-05
2	533	119.741228697682	1.24008178710938	1.24053955078125	2.54730224609375E-06	3.16002888212097E-06	487001.34375	8.9119203039445E-05
2	534	119.841936697428	1.23001098632813	1.2298583984375	2.5299072265625E-06	3.1114275316213E-06	486127.90625	8.93748583621345E-05
2	535	119.942644697174	1.21994018554688	1.21978759765625	2.51312255859375E-06	3.06547576656158E-06	485367.34375	8.96287965588272E-05
2	536	120.04335269692	1.20986938476563	1.209716796875	2.496337890625E-06	3.01986187878356E-06	484596.59375	8.98810394573957E-05
2	537	120.144060696665	1.19979858398438	1.19964599609375	2.48077392578125E-06	2.97605038213078E-06	483577.3125	9.01316598174162E-05
2	538	120.244768696411	1.18972778320313	1.18988037109375	2.46490478515625E-06	2.93294192488247E-06	482728.71875	9.03806940186769E-05
2	539	120.345476696157	1.17965698242188	1.17919921875	2.45086669921875E-06	2.8900599318149E-06	481135.625	9.06282220967114E-05
2	540	120.446184695903	1.16958618164063	1.16943359375	2.43743896484375E-06	2.85042301584326E-06	479779.625	9.08743677427992E-05
2	541	120.546892695648	1.15951538085938	1.15936279296875	2.42401123046875E-06	2.81030838777951E-06	478282.78125	9.11191600607708E-05
2	542	120.647600695394	1.14944458007813	1.1492919921875	2.4102783203125E-06	2.77011349680834E-06	476829.59375	9.13625917746685E-05
2	543	120.74830869514	1.13937377929688	1.13922119140625	2.39654541015625E-06	2.73019531960017E-06	475359.75	9.1604633780662E-05
2	544	120.849016694886	1.12930297851563	1.129150390625	2.38250732421875E-06	2.69020915766305E-06	473933.65625	9.18452788027935E-05
2	545	120.949724694631	1.11923217773438	1.11907958984375	2.3687744140625E-06	2.65084713646502E-06	472429.78125	9.20845195651054E-05
2	546	121.050432694377	1.10916137695313	1.10931396484375	2.35565185546875E-06	2.61315744864987E-06	470915.9375	9.23224142752588E-05
2	547	121.151140694123	1.09909057617188	1.0992431640625	2.342529296875E-06	2.57500937550503E-06	469254.8125	9.25589847611263E-05
2	548	121.251848693869	1.08901977539063	1.0888671875	2.3297119140625E-06	2.53674670602777E-06	467382.78125	9.2794252850581E-05
2	549	121.352556693614	1.07894897460938	1.07879638671875	2.31689453125E-06	2.49945742325508E-06	465621.6875	9.30282258195803E-05
2	550	121.45326469336	1.06887817382813	1.0693359375	2.30316162109375E-06	2.46285344474018E-06	464290.4375	9.32608672883362E-05
2	551	121.553972693106	1.05880737304688	1.0589599609375	2.28851318359375E-06	2.4234436750703E-06	462728.375	9.34920753934421E-05
2	552	121.654680692851	1.04873657226563	1.04888916015625	2.27386474609375E-06	2.38503207583562E-06	461280.375	9.37218137551099E-05
2	553	121.755388692597	1.03866577148438	1.03851318359375	2.25921630859375E-06	2.34622575590038E-06	459678.53125	9.39500678214245E-05
2	554	121.856096692343	1.02859497070313	1.02813720703125	2.244873046875E-06	2.30803743761498E-06	457993.46875	9.41768666962162E-05
2	555	121.956804692089	1.01852416992188	1.01806640625	2.22991943359375E-06	2.27020586862636E-06	456548.53125	9.44021885516122E-05
2	556	122.057512691834	1.00845336914063	1.00860595703125	2.2137451171875E-06	2.23279653255304E-06	455610.6875	9.46259460761212E-05
2	557	122.15822069158	0.998382568359375	0.99853515625	2.19635009765625E-06	2.19313278648769E-06	454633.875	9.48480155784637E-05
2	558	122.258928691326	0.988311767578125	0.98785400390625	2.17620849609375E-06	2.14977626455948E-06	453933.53125	9.50681933318265E-05
2	559	122.359636691072	0.978240966796875	0.9783935546875	2.15240478515625E-06	2.10589882954082E-06	454558.375	9.5286151918117E-05
2	560	122.460344690817	0.968170166015625	0.968017578125	2.12432861328125E-06	2.05638752959203E-06	455681.65625	9.55015057115816E-05
2	561	122.561052690563	0.958099365234375	0.95794677734375	2.08892822265625E-06	2.00108206627192E-06	458582.9375	9.57136580836959E-05
2	562	122.661760690309	0.948028564453125	0.948486328125	2.04437255859375E-06	1.93905930245819E-06	463949.875	9.59217868512496E-05
2	563	122.762468690055	0.937957763671875	0.9375	1.98486328125E-06	1.86080933417543E-06	472324.71875	9.61246769293211E-05
2	564	122.8631766898	0.927886962890625	0.92742919921875	1.904296875E-06	1.76610046764836E-06	487019.25	9.63205093285069E-05
2	565	122.963884689546	0.917816162109375	0.91705322265625	1.79656982421875E-06	1.64755010700901E-06	510446.75	9.65068611549214E-05
2	566	123.064592689292	0.907745361328125	0.90789794921875	1.6522216796875E-06	1.50004859733599E-06	549501.3125	9.66805237112567E-05
2	567	123.165300689038	0.897674560546875	0.897216796875	1.4654541015625E-06	1.31483000131993E-06	612244.9375	9.68375097727403E-05
2	568	123.266008688783	0.887603759765625	0.88775634765625	1.23199462890625E-06	1.09371103462763E-06	720584.625	9.69733373494819E-05
2	569	123.366716688529	0.877532958984375	0.8770751953125	9.5184326171875E-07	8.34838090213452E-07	921449.25	9.70833061728626E-05
2	570	123.467424688275	0.867462158203125	0.86761474609375	6.34155273437501E-07	5.5020245781634E-07	1368142.5	9.71631670836359E-05
2	571	123.56813268802	0.857391357421875	0.8575439453125	2.93579101562499E-07	2.51756972602379E-07	2920998	9.7209878731519E-05
2	572	123.668840687766	0.847320556640625	0.8477783203125	-4.33349609374994E-08	-3.67384416222194E-08	-19563380	9.72224806901067E-05
2	573	123.769548687512	0.837249755859375	0.83740234375	-3.509521484375E-07	-2.93888149371924E-07	-2386087	9.72026246017776E-05
2	574	123.870256687258	0.827178955078125	0.82733154296875	-6.060791015625E-07	-5.01428360166756E-07	-1365055.375	9.71544359344989E-05
2	575	123.970964687003	0.817108154296875	0.81695556640625	-7.904052734375E-07	-6.45725947379105E-07	-1033590.75	9.70841138041578E-05
2	576	124.071672686749	0.807037353515625	0.8074951171875	-8.97216796875E-07	-7.24498136150942E-07	-900000.0625	9.69991378951818E-05
2	577	124.172380686495	0.796966552734375	0.79742431640625	-9.3536376953125E-07	-7.45881777675095E-07	-852528.5625	9.69068642007187E-05
2	578	124.273088686241	0.786895751953125	0.7867431640625	-9.2193603515625E-07	-7.25326856354513E-07	-853359.8125	9.6813339041546E-05
2	579	124.373796685986	0.776824951171875	0.7769775390625	-8.795166015625E-07	-6.83364589804114E-07	-883414.3125	9.672262967797E-05
2	580	124.474504685732	0.766754150390625	0.7672119140625	-8.27941894531251E-07	-6.35206845345238E-07	-926649.5	9.66366496868432E-05
2	581	124.575212685478	0.756683349609375	0.75714111328125	-7.861328125E-07	-5.9521346429392E-07	-963121.1875	9.65553772402927E-05
2	582	124.675920685224	0.746612548828125	0.74652099609375	-7.66601562499999E-07	-5.72284136524104E-07	-973805.75	9.64771897997707E-05
2	583	124.776628684969	0.736541748046875	0.7364501953125	-7.8155517578125E-07	-5.75576450501103E-07	-942288.1875	9.63992351898924E-05
2	584	124.877336684715	0.726470947265625	0.7264404296875	-8.404541015625E-07	-6.10539814260846E-07	-864342.75	9.63175552897155E-05
2	585	124.978044684461	0.716400146484375	0.716400146484375	-9.51538085937501E-07	-6.81682024605834E-07	-752886.4375	9.6227326139342E-05
2	586	125.078752684207	0.706329345703125	0.706268310546875	-1.11602783203125E-06	-7.88215061220399E-07	-632841.1875	9.61232144618407E-05
2	587	125.179460683952	0.696258544921875	0.69622802734375	-1.3262939453125E-06	-9.23403035812953E-07	-524942.5	9.60002362262458E-05
2	588	125.280168683698	0.686187744140625	0.686126708984375	-1.56219482421875E-06	-1.07186360764899E-06	-439206.875	9.58547898335382E-05
2	589	125.380876683444	0.676116943359375	0.67608642578125	-1.8011474609375E-06	-1.21773132377712E-06	-375364.3125	9.56854273681529E-05
2	590	125.481584683189	0.666046142578125	0.66595458984375	-2.01263427734375E-06	-1.34032302412379E-06	-330887.03125	9.54933930188417E-05
2	591	125.582292682935	0.655975341796875	0.655914306640625	-2.17254638671875E-06	-1.42500425681646E-06	-301910.375	9.52826521825045E-05
2	592	125.683000682681	0.645904541015625	0.645843505859375	-2.26287841796875E-06	-1.46146521728951E-06	-285407.96875	9.50593093875796E-05
2	593	125.783708682427	0.635833740234375	0.6357421875	-2.28179931640625E-06	-1.45063597756234E-06	-278614.4375	9.48304659686983E-05
2	594	125.884416682172	0.625762939453125	0.625732421875	-2.2393798828125E-06	-1.40125257530599E-06	-279422.1875	9.46028085309081E-05
2	595	125.985124681918	0.615692138671875	0.615692138671875	-2.15362548828125E-06	-1.32597028823511E-06	-285886.34375	9.43815975915641E-05
2	596	126.085832681664	0.605621337890625	0.605560302734375	-2.0440673828125E-06	-1.23780603189516E-06	-296252.625	9.4170231022872E-05
2	597	126.18654068141	0.595550537109375	0.59552001953125	-1.9244384765625E-06	-1.14604165446508E-06	-309451.3125	9.39703968469985E-05
2	598	126.287248681155	0.585479736328125	0.58544921875	-1.8035888671875E-06	-1.05590970633784E-06	-324602.375	9.37826771405526E-05
2	599	126.387956680901	0.575408935546875	0.57537841796875	-1.68853759765625E-06	-9.71548047346005E-07	-340755.5	9.36068390728906E-05
2	600	126.488664680647	0.565338134765625	0.565338134765625	-1.58172607421875E-06	-8.94210018032027E-07	-357418.5	9.34421623242088E-05
2	601	126.589372680393	0.555267333984375	0.555267333984375	-1.48223876953125E-06	-8.23038760700001E-07	-374613.96875	9.32878829189576E-05
2	602	126.690080680138	0.545196533203125	0.545135498046875	-1.39312744140625E-06	-7.59443196329812E-07	-391303.40625	9.3143098638393E-05
2	603	126.790788679884	0.535125732421875	0.535125732421875	-1.3128662109375E-06	-7.02548447861773E-07	-407601.125	9.30068417801522E-05
2	604	126.89149667963	0.525054931640625	0.52508544921875	-1.23992919921875E-06	-6.51068774004671E-07	-423480.21875	9.28782974369824E-05
2	605	126.992204679376	0.514984130859375	0.514984130859375	-1.17401123046875E-06	-6.04597175879462E-07	-438653.5	9.27567452890798E-05
2	606	127.092912679121	0.504913330078125	0.504913330078125	-1.1138916015625E-06	-5.62418733807135E-07	-453287.6875	9.26415377762169E-05
2	607	127.193620678867	0.494842529296875	0.49481201171875	-1.05865478515625E-06	-5.23835126386984E-07	-467396.9375	9.25321437534876E-05
2	608	127.294328678613	0.484771728515625	0.48480224609375	-1.00799560546875E-06	-4.88678551846533E-07	-480956.71875	9.2428075731732E-05
2	609	127.395036678358	0.474700927734375	0.474700927734375	-9.6160888671875E-07	-4.56476612953338E-07	-493652.8125	9.2328897153493E-05
2	610	127.495744678104	0.464630126953125	0.46466064453125	-9.185791015625E-07	-4.26827540422892E-07	-505847.1875	9.22342223930173E-05
2	611	127.59645267785	0.454559326171875	0.45458984375	-8.8043212890625E-07	-4.0023547853707E-07	-516325.84375	9.21436367207207E-05
2	612	127.697160677596	0.444488525390625	0.44451904296875	-8.453369140625E-07	-3.75768337335103E-07	-525848.375	9.20567399589345E-05
2	613	127.797868677341	0.434417724609375	0.4344482421875	-8.123779296875E-07	-3.5293615496812E-07	-534785.875	9.1973262897227E-05
2	614	127.898576677087	0.424346923828125	0.42437744140625	-7.81860351562499E-07	-3.31803875042169E-07	-542779.125	9.18929872568697E-05
2	615	127.999284676833	0.414276123046875	0.414306640625	-7.53173828125001E-07	-3.12044903694186E-07	-550081.0625	9.18156947591342E-05
2	616	128.099992676579	0.404205322265625	0.404266357421875	-7.26928710937499E-07	-2.93872830070541E-07	-556129.3125	9.17411671252921E-05
2	617	128.200700676324	0.394134521484375	0.39410400390625	-7.0343017578125E-07	-2.77224643241425E-07	-560260.3125	9.16691424208693E-05
2	618	128.30140867607	0.384063720703125	0.38409423828125	-6.81152343749999E-07	-2.61626666997472E-07	-563888.9375	9.15994241950102E-05
2	619	128.402116675816	0.373992919921875	0.37396240234375	-6.6070556640625E-07	-2.47079043447229E-07	-566004.625	9.15318523766473E-05
2	620	128.502824675562	0.363922119140625	0.363922119140625	-6.41784667968751E-07	-2.3355963207905E-07	-567047.0625	9.1466266894713E-05
2	621	128.603532675307	0.353851318359375	0.353851318359375	-6.23779296875E-07	-2.2072511285387E-07	-567270.0625	9.1402544057928E-05
2	622	128.704240675053	0.343780517578125	0.34381103515625	-6.0699462890625E-07	-2.08691446346165E-07	-566415.3125	9.13405674509704E-05
2	623	128.804948674799	0.333709716796875	0.333709716796875	-5.9112548828125E-07	-1.9726431332856E-07	-564532.8125	9.12802352104336E-05
2	624	128.905656674545	0.323638916015625	0.323638916015625	-5.7708740234375E-07	-1.86767948662236E-07	-560814.375	9.12214163690805E-05
2	625	129.00636467429	0.313568115234375	0.3135986328125	-5.633544921875E-07	-1.76667199980329E-07	-556663.0625	9.11639872356318E-05
2	626	129.107072674036	0.303497314453125	0.303497314453125	-5.51452636718749E-07	-1.67364390790681E-07	-550359.75	9.11078532226384E-05
2	627	129.207780673782	0.293426513671875	0.293426513671875	-5.413818359375E-07	-1.58855783638501E-07	-541995.5	9.10528251552023E-05
2	628	129.308488673527	0.283355712890625	0.283294677734375	-5.316162109375E-07	-1.50604037685298E-07	-532893.25	9.09987938939594E-05
2	629	129.409196673273	0.273284912109375	0.27325439453125	-5.2337646484375E-07	-1.43014915465756E-07	-522099.125	9.09456721274182E-05
2	630	129.509904673019	0.263214111328125	0.26318359375	-5.145263671875E-07	-1.35414893520647E-07	-511506.5625	9.08934089238755E-05
2	631	129.610612672765	0.253143310546875	0.253204345703125	-5.084228515625E-07	-1.28734868098945E-07	-498019.21875	9.08419024199247E-05
2	632	129.71132067251	0.243072509765625	0.2430419921875	-5.035400390625E-07	-1.2238137969689E-07	-482666.65625	9.0790941612795E-05
2	633	129.812028672256	0.233001708984375	0.233001708984375	-5.0018310546875E-07	-1.16543517947321E-07	-465832.84375	9.07404028112069E-05
2	634	129.912736672002	0.222930908203125	0.222991943359375	-4.99572753906249E-07	-1.11400701996445E-07	-446365.28125	9.06900604604743E-05
2	635	130.013444671748	0.212860107421875	0.212921142578125	-5.01708984375E-07	-1.06824451506782E-07	-424391.71875	9.06396380742081E-05
2	636	130.114152671493	0.202789306640625	0.202880859375	-5.0567626953125E-07	-1.02592032646953E-07	-401207	9.05889173736796E-05
2	637	130.214860671239	0.192718505859375	0.192718505859375	-5.11779785156249E-07	-9.86294352856021E-08	-376565.3125	9.05376800801605E-05
2	638	130.315568670985	0.182647705078125	0.18267822265625	-5.2154541015625E-07	-9.52749914517881E-08	-350263.3125	9.04856497072615E-05
2	639	130.416276670731	0.172576904296875	0.172607421875	-5.3436279296875E-07	-9.22349769894026E-08	-323015.4375	9.04324842849746E-05
2	640	130.516984670476	0.162506103515625	0.16253662109375	-5.5084228515625E-07	-8.95320440008618E-08	-295069.25	9.03778345673345E-05
2	641	130.617692670222	0.152435302734375	0.152435302734375	-5.6915283203125E-07	-8.67589804443014E-08	-267828.4375	9.0321438619867E-05
2	642	130.718400669968	0.142364501953125	0.142364501953125	-5.89599609374999E-07	-8.39380547290602E-08	-241459.625	9.02630927157588E-05
2	643	130.819108669714	0.132293701171875	0.13232421875	-6.0943603515625E-07	-8.06431472710756E-08	-217125.6875	9.02027168194763E-05
2	644	130.919816669459	0.122222900390625	0.12225341796875	-6.30798339843749E-07	-7.71172494751227E-08	-193807.46875	9.01402672752738E-05
2	645	131.020524669205	0.112152099609375	0.112213134765625	-6.55517578125001E-07	-7.35576790589221E-08	-171182.5	9.00754967005923E-05
2	646	131.121232668951	0.102081298828125	0.1021728515625	-6.87561035156251E-07	-7.0250067096822E-08	-148601.875	9.00078666745685E-05
2	647	131.221940668696	0.092010498046875	0.092071533203125	-7.3394775390625E-07	-6.75756908208314E-08	-125446.9921875	8.99362858035602E-05
2	648	131.322648668442	0.081939697265625	0.08197021484375	-8.013916015625E-07	-6.56902443552099E-08	-102284.84375	8.98589787539095E-05
2	649	131.423356668188	0.071868896484375	0.071929931640625	-8.96606445312501E-07	-6.44928377369069E-08	-80224.6484375	8.97734717000276E-05
2	650	131.524064667934	0.061798095703125	0.061798095703125	-1.02447509765625E-06	-6.33106083114399E-08	-60321.71875	8.9676737843547E-05
2	651	131.624772667679	0.051727294921875	0.051788330078125	-1.185302734375E-06	-6.13848456509913E-08	-43692.0703125	8.95654666237533E-05
2	652	131.725480667425	0.041656494140625	0.0417388916015625	-1.37542724609375E-06	-5.74088083737934E-08	-30346.126953125	8.94365293788724E-05
2	653	131.826188667171	0.031585693359375	0.031683349609375	-1.58294677734375E-06	-5.01530550423013E-08	-20015.421875	8.92875614226796E-05
2	654	131.926896666917	0.021514892578125	0.0216156005859375	-1.78985595703125E-06	-3.86888103776073E-08	-12076.7265625	8.91177260200493E-05
2	655	132.027604666662	0.011444091796875	0.0115264892578125	-1.976318359375E-06	-2.27800125429667E-08	-5832.30419921875	8.89280854607932E-05
2	656	132.128312666408	0.001373291015625	0.0014801025390625	-2.1221923828125E-06	-3.14106229915012E-09	-697.440307617188	8.87217101990245E-05
2	657	132.229020666154	-0.008697509765625	-0.008575439453125	-2.21771240234375E-06	1.90178575110167E-08	3866.79516601563	8.85031768120825E-05
2	658	132.3297286659	-0.018768310546875	-0.01861572265625	-2.25860595703125E-06	4.20455812388809E-08	8242.1298828125	8.82777749211527E-05
2	659	132.430436665645	-0.028839111328125	-0.0287200927734375	-2.254638671875E-06	6.47534221798196E-08	12738.224609375	8.80505176610313E-05
2	660	132.531144665391	-0.038909912109375	-0.03878173828125	-2.21771240234375E-06	8.60067430608069E-08	17487.271484375	8.78253122209571E-05
2	661	132.631852665137	-0.048980712890625	-0.0488677978515625	-2.161865234375E-06	1.0564559715931E-07	22604.4609375	8.76047852216288E-05
2	662	132.732560664882	-0.059051513671875	-0.058990478515625	-2.09808349609375E-06	1.23766952242477E-07	28116.36328125	8.73902827152051E-05
2	663	132.833268664628	-0.069122314453125	-0.069061279296875	-2.03277587890625E-06	1.40386106295409E-07	33973.87890625	8.71822776389308E-05
2	664	132.933976664374	-0.079193115234375	-0.0791015625	-1.97265625E-06	1.56040186993778E-07	40099.0078125	8.69805880938657E-05
2	665	133.03468466412	-0.089263916015625	-0.0892333984375	-1.91741943359375E-06	1.71097852330604E-07	46538.27734375	8.67847047629766E-05
2	666	133.135392663865	-0.099334716796875	-0.099334716796875	-1.86920166015625E-06	1.85676611863528E-07	53142.859375	8.65940310177393E-05
2	667	133.236100663611	-0.109405517578125	-0.10931396484375	-1.8267822265625E-06	1.99692806290841E-07	59839.62890625	8.64079265738837E-05
2	668	133.336808663357	-0.119476318359375	-0.119354248046875	-1.79107666015625E-06	2.13772608503859E-07	66638.265625	8.62257511471398E-05
2	669	133.437516663103	-0.129547119140625	-0.1295166015625	-1.76116943359375E-06	2.28100674348752E-07	73540.1171875	8.60468790051527E-05
2	670	133.538224662848	-0.139617919921875	-0.1395263671875	-1.73675537109375E-06	2.42323153543111E-07	80337.3828125	8.58707498991862E-05
2	671	133.638932662594	-0.149688720703125	-0.14947509765625	-1.71722412109375E-06	2.56682227472993E-07	87044.609375	8.56968254083768E-05
2	672	133.73964066234	-0.159759521484375	-0.159576416015625	-1.70318603515625E-06	2.71788309191834E-07	93692.890625	8.55245962156914E-05
2	673	133.840348662086	-0.169830322265625	-0.169677734375	-1.69189453125E-06	2.87076829863508E-07	100288.6015625	8.53536403155886E-05
2	674	133.941056661831	-0.179901123046875	-0.1796875	-1.6851806640625E-06	3.02805915453064E-07	106628.03125	8.51835866342299E-05
2	675	134.041764661577	-0.189971923828125	-0.1898193359375	-1.6815185546875E-06	3.19184721320198E-07	112885.6640625	8.5014064097777E-05
2	676	134.142472661323	-0.200042724609375	-0.19989013671875	-1.680908203125E-06	3.35996958256146E-07	118917.9375	8.4844752564095E-05
2	677	134.243180661069	-0.189971923828125	-0.189849853515625	-1.4752197265625E-06	2.80070253211306E-07	128692.59375	8.4685831097886E-05
