Potential - Start -0.2 V, Upper Vertex 1.5 V, Lower Vertex -0.2 V, Stop -0.19 V; Scan - # end cross 5, Rate 0.1 Vps, Step 0.01 V 
Scan	Index	Time (s)	Potential applied (V)	WE(1).Potential (V)	WE(1).Current (A)	WE(1).Power (W)	WE(1).Resistance (Ω)	WE(1).Charge (C)
1	1	66.5315868320239	-0.189971923828125	-0.189788818359375	-1.9561767578125E-07	3.71260462372902E-08	970202.8125	0
1	2	66.6322948317696	-0.179901123046875	-0.17974853515625	-1.6326904296875E-07	2.93473707557723E-08	1100934.625	-1.80713808362043E-08
1	3	66.7330028315154	-0.169830322265625	-0.169769287109375	-1.3763427734375E-07	2.33660717441353E-08	1233481.125	-3.32230669641831E-08
1	4	66.8337108312611	-0.159759521484375	-0.159637451171875	-1.15051269531249E-07	1.83664905506475E-08	1387533.25	-4.59467948132897E-08
1	5	66.9344188310068	-0.149688720703125	-0.149566650390625	-9.46044921875E-08	1.41496760974746E-08	1580967.875	-5.65038007493968E-08
1	6	67.0351268307526	-0.139617919921875	-0.1395263671875	-7.50732421874997E-08	1.04746957774182E-08	1858536.625	-6.50477502972535E-08
1	7	67.1358348304983	-0.129547119140625	-0.129425048828125	-5.58471679687506E-08	7.228022180783E-09	2317486.5	-7.16401160616442E-08
1	8	67.236542830244	-0.119476318359375	-0.119354248046875	-3.57055664062494E-08	4.2616106199489E-09	3342735.25	-7.62501670692473E-08
1	9	67.3372508299898	-0.109405517578125	-0.10931396484375	-1.40380859374997E-08	1.53455881335418E-09	7786957	-7.8754958110494E-08
1	10	67.4379588297355	-0.099334716796875	-0.099212646484375	1.12915039062494E-08	-1.12025999587928E-09	-8786487	-7.88932581485824E-08
1	11	67.5386668294813	-0.089263916015625	-0.0892333984375	4.18090820312494E-08	-3.73076636250858E-09	-2134306.75	-7.62194289904983E-08
1	12	67.639374829227	-0.079193115234375	-0.0791015625	7.96508789062497E-08	-6.30050855932041E-09	-993103.5	-7.01034394978706E-08
1	13	67.7400828289727	-0.069122314453125	-0.069122314453125	1.29089355468751E-07	-8.92295481946803E-09	-535461	-5.95925300217459E-08
1	14	67.8407908287185	-0.059051513671875	-0.05902099609375	1.934814453125E-07	-1.14194671496648E-08	-305047.3125	-4.3349800193937E-08
1	15	67.9414988284642	-0.048980712890625	-0.0488433837890625	2.79541015625E-07	-1.36537288142335E-08	-174727.078125	-1.95312281903171E-08
1	16	68.0422068282099	-0.038909912109375	-0.038775634765625	3.93066406250001E-07	-1.5241397477439E-08	-98649.0703125	1.43372451688606E-08
1	17	68.1429148279557	-0.028839111328125	-0.0287017822265625	5.389404296875E-07	-1.54685508846342E-08	-53255.94921875	6.12675137290353E-08
1	18	68.2436228277014	-0.018768310546875	-0.0186614990234375	7.19604492187501E-07	-1.34288979936059E-08	-25932.994140625	1.24640280318999E-07
1	19	68.3443308274472	-0.008697509765625	-0.0085784912109375	9.326171875E-07	-8.0004483038465E-09	-9198.298828125	2.07836251320259E-07
1	20	68.4450388271929	0.001373291015625	0.00147705078125	1.16668701171875E-06	1.72325598235545E-09	1266.02160644531	3.13544603613991E-07
1	21	68.5457468269386	0.011444091796875	0.011505126953125	1.40411376953125E-06	1.61545070653801E-08	8193.87109375	4.42994718241607E-07
1	22	68.6464548266844	0.021514892578125	0.02161865234375	1.622314453125E-06	3.50722508812851E-08	13325.810546875	5.95387461999053E-07
1	23	68.7471628264301	0.031585693359375	0.031640625	1.80084228515625E-06	5.69797755645141E-08	17569.904296875	7.67757114772394E-07
1	24	68.8478708261758	0.041656494140625	0.0417633056640625	1.9244384765625E-06	8.03709099272965E-08	21701.5546875	9.55339942265709E-07
1	25	68.9485788259216	0.051727294921875	0.051727294921875	1.98822021484375E-06	1.02845255867123E-07	26016.884765625	1.15235786779522E-06
1	26	69.0492868256673	0.061798095703125	0.061859130859375	1.99859619140625E-06	1.23631423321058E-07	30951.291015625	1.35311006488337E-06
1	27	69.149994825413	0.071868896484375	0.0718994140625	1.97021484375E-06	1.41657281460539E-07	36493.1875	1.55295560944069E-06
1	28	69.2507028251588	0.081939697265625	0.082061767578125	1.91680908203125E-06	1.57296739189405E-07	42811.65625	1.7486827346147E-06
1	29	69.3514108249045	0.092010498046875	0.092071533203125	1.8499755859375E-06	1.70330082482906E-07	49769.0546875	1.93835535355902E-06
1	30	69.4521188246503	0.102081298828125	0.102142333984375	1.7791748046875E-06	1.8172906379732E-07	57409.94921875	2.12109762287582E-06
1	31	69.552826824396	0.112152099609375	0.1121826171875	1.7095947265625E-06	1.91786810432859E-07	65619.421875	2.29677107199677E-06
1	32	69.6535348241417	0.122222900390625	0.122314453125	1.644287109375E-06	2.01120073484162E-07	74387.53125	2.46565241468488E-06
1	33	69.7542428238875	0.132293701171875	0.132354736328125	1.58416748046875E-06	2.09672066375788E-07	83548.453125	2.62821822616388E-06
1	34	69.8549508236332	0.142364501953125	0.142425537109375	1.5301513671875E-06	2.17932623058914E-07	93079.3828125	2.78503648587503E-06
1	35	69.9556588233789	0.152435302734375	0.152496337890625	1.4813232421875E-06	2.25896371830459E-07	102946.0234375	2.93667631012795E-06
1	36	70.0563668231247	0.162506103515625	0.162506103515625	1.43829345703125E-06	2.33731469734266E-07	112985.359375	3.08369067170133E-06
1	37	70.1570748228704	0.172576904296875	0.172637939453125	1.3995361328125E-06	2.41613037132993E-07	123353.6875	3.22658684126509E-06
1	38	70.2577828226162	0.182647705078125	0.1826171875	1.36566162109375E-06	2.493932811376E-07	133720.671875	3.36582547788566E-06
1	39	70.3584908223619	0.192718505859375	0.1927490234375	1.33453369140625E-06	2.57230055922264E-07	144431.75	3.50179107044823E-06
1	40	70.4591988221076	0.202789306640625	0.20281982421875	1.307373046875E-06	2.65161162360528E-07	155135.390625	3.63482172360818E-06
1	41	70.5599068218534	0.212860107421875	0.212860107421875	1.2823486328125E-06	2.72960875236095E-07	165992.375	3.76522461920104E-06
1	42	70.6606148215991	0.222930908203125	0.22296142578125	1.25946044921875E-06	2.80811093489319E-07	177029.328125	3.89321485272376E-06
1	43	70.7613228213448	0.233001708984375	0.233001708984375	1.23931884765625E-06	2.88763402522818E-07	188007.875	4.01903844249318E-06
1	44	70.8620308210906	0.243072509765625	0.24310302734375	1.22100830078125E-06	2.96830791057801E-07	199100.234375	4.14292571804253E-06
1	45	70.9627388208363	0.253143310546875	0.253173828125	1.20452880859375E-06	3.04955165120191E-07	210184.953125	4.26506130679627E-06
1	46	71.063446820582	0.263214111328125	0.263275146484375	1.1895751953125E-06	3.13185580580466E-07	221318.625	4.38561392002157E-06
1	47	71.1641548203278	0.273284912109375	0.27325439453125	1.175537109375E-06	3.21220682053536E-07	232450.671875	4.50470679425052E-06
1	48	71.2648628200735	0.283355712890625	0.283355712890625	1.1627197265625E-06	3.29463290427157E-07	243700.78125	4.62244724985794E-06
1	49	71.3655708198193	0.293426513671875	0.29345703125	1.1517333984375E-06	3.37984261022939E-07	254795.96875	4.73898944619577E-06
1	50	71.466278819565	0.303497314453125	0.30352783203125	1.14105224609375E-06	3.46341096246761E-07	266006.96875	4.85444024889148E-06
1	51	71.5669868193107	0.313568115234375	0.313568115234375	1.1322021484375E-06	3.55022478970568E-07	276954.1875	4.96890743306722E-06
1	52	71.6676948190565	0.323638916015625	0.3236083984375	1.1236572265625E-06	3.63624906185578E-07	287995.65625	5.0824992285925E-06
1	53	71.7684028188022	0.333709716796875	0.33367919921875	1.11572265625E-06	3.72293442296723E-07	299070.03125	5.19526111020241E-06
1	54	71.8691108185479	0.343780517578125	0.34381103515625	1.1090087890625E-06	3.81289453343925E-07	310016.53125	5.30728493686183E-06
1	55	71.9698188182937	0.353851318359375	0.3538818359375	1.10321044921875E-06	3.90406114547659E-07	320774.5625	5.41867893844028E-06
1	56	72.0705268180394	0.363922119140625	0.363922119140625	1.0980224609375E-06	3.99594625832833E-07	331434.15625	5.52951996724005E-06
1	57	72.1712348177851	0.373992919921875	0.373992919921875	1.0943603515625E-06	4.09283018143469E-07	341745.6875	5.63991534363595E-06
1	58	72.2719428175309	0.384063720703125	0.384063720703125	1.09100341796875E-06	4.19014810404406E-07	352028	5.74995692659286E-06
1	59	72.3726508172766	0.394134521484375	0.39410400390625	1.08856201171875E-06	4.29006604463211E-07	362040.96875	5.85970701649785E-06
1	60	72.4733588170224	0.404205322265625	0.4041748046875	1.08612060546875E-06	4.38982596051574E-07	372127	5.96921063333866E-06
1	61	72.5740668167681	0.414276123046875	0.414337158203125	1.08428955078125E-06	4.49261449375626E-07	382127.78125	6.07849960942985E-06
1	62	72.6747748165138	0.424346923828125	0.424346923828125	1.08306884765625E-06	4.59596918744865E-07	391800.53125	6.18763488091645E-06
1	63	72.7754828162596	0.434417724609375	0.4344482421875	1.08184814453125E-06	4.70007023523067E-07	401579.6875	6.29664691587095E-06
1	64	72.8761908160053	0.444488525390625	0.44451904296875	1.0809326171875E-06	4.80495145893656E-07	411236.59375	6.40555163045065E-06
1	65	72.976898815751	0.454559326171875	0.45458984375	1.080322265625E-06	4.91103548938554E-07	420790.96875	6.51437949272804E-06
1	66	73.0776068154968	0.464630126953125	0.464569091796875	1.08001708984375E-06	5.01742590586218E-07	430149.75	6.62316142552299E-06
1	67	73.1783148152425	0.474700927734375	0.474700927734375	1.0809326171875E-06	5.1311974402779E-07	439158.65625	6.73197382639046E-06
1	68	73.2790228149883	0.484771728515625	0.4847412109375	1.08184814453125E-06	5.24416407188255E-07	448067.6875	6.84087854097015E-06
1	69	73.379730814734	0.494842529296875	0.49481201171875	1.08367919921875E-06	5.36217498847691E-07	456603.78125	6.94992149874452E-06
1	70	73.4804388144797	0.504913330078125	0.50494384765625	1.085205078125E-06	5.47967658803827E-07	465298.09375	7.05913316778606E-06
1	71	73.5811468142255	0.514984130859375	0.515045166015625	1.08795166015625E-06	5.6034423323581E-07	473408.125	7.16856038707192E-06
1	72	73.6818548139712	0.525054931640625	0.524993896484375	1.090087890625E-06	5.72289479805477E-07	481606.96875	7.27823362467461E-06
1	73	73.7825628137169	0.535125732421875	0.53515625	1.09344482421875E-06	5.85163832056423E-07	489422.28125	7.38818289391929E-06
1	74	73.8832708134627	0.545196533203125	0.545166015625	1.0968017578125E-06	5.97939049384877E-07	497050.65625	7.49847094994038E-06
1	75	73.9839788132084	0.555267333984375	0.5552978515625	1.10015869140625E-06	6.10915719789773E-07	504743.40625	7.60909642849583E-06
1	76	74.0846868129541	0.565338134765625	0.565338134765625	1.10382080078125E-06	6.24031940787972E-07	512164.8125	7.72007570049027E-06
1	77	74.1853948126999	0.575408935546875	0.575408935546875	1.1083984375E-06	6.37782363810402E-07	519135.4375	7.83146970206872E-06
1	78	74.2861028124456	0.585479736328125	0.585418701171875	1.11328125E-06	6.51735660994746E-07	525849.8125	7.94334027887089E-06
1	79	74.3868108121914	0.595550537109375	0.595489501953125	1.1187744140625E-06	6.66218454625778E-07	532269.5	8.05573290563188E-06
1	80	74.4875188119371	0.605621337890625	0.6055908203125	1.12518310546875E-06	6.81400535995635E-07	538215.375	8.16872579889605E-06
1	81	74.5882268116828	0.615692138671875	0.6156005859375	1.13250732421875E-06	6.97172197305918E-07	543573.125	8.28240899863886E-06
1	82	74.6889348114286	0.625762939453125	0.62579345703125	1.14105224609375E-06	7.14062991846731E-07	548435.4375	8.39689164422452E-06
1	83	74.7896428111743	0.635833740234375	0.6357421875	1.1505126953125E-06	7.31429395273153E-07	552573	8.51228105602786E-06
1	84	74.89035081092	0.645904541015625	0.6458740234375	1.16119384765625E-06	7.49984963022143E-07	556215.5	8.62868546391837E-06
1	85	74.9910588106658	0.655975341796875	0.655914306640625	1.17431640625E-06	7.70250892401236E-07	558549.9375	8.74628767633112E-06
1	86	75.0917668104115	0.666046142578125	0.666015625	1.18743896484375E-06	7.90852880072634E-07	560884.125	8.86521138454555E-06
1	87	75.1924748101573	0.676116943359375	0.676055908203125	1.20025634765625E-06	8.11440372672223E-07	563259.625	8.98544112715172E-06
1	88	75.293182809903	0.686187744140625	0.6861572265625	1.212158203125E-06	8.31731085781939E-07	566062.4375	9.10691596800461E-06
1	89	75.3938908096487	0.696258544921875	0.69622802734375	1.221923828125E-06	8.50737592372752E-07	569780.25	9.22948129300494E-06
1	90	75.4945988093945	0.706329345703125	0.706268310546875	1.2310791015625E-06	8.69472160047735E-07	573698.5625	9.35299976845272E-06
1	91	75.5953068091402	0.716400146484375	0.716278076171875	1.23809814453125E-06	8.86822533630038E-07	578530.9375	9.47733315115329E-06
1	92	75.6960148088859	0.726470947265625	0.72637939453125	1.2457275390625E-06	9.04870773865696E-07	583096.5625	9.602404134057E-06
1	93	75.7967228086317	0.736541748046875	0.736419677734375	1.25457763671875E-06	9.23895584037382E-07	586986.1875	9.72830366663402E-06
1	94	75.8974308083774	0.746612548828125	0.746551513671875	1.26556396484375E-06	9.44808675740205E-07	589896.3125	9.85520364338299E-06
1	95	75.9981388081231	0.756683349609375	0.7562255859375	1.28082275390625E-06	9.68590939010028E-07	590421.75	9.98342420643894E-06
1	96	76.0988468078689	0.766754150390625	0.7666015625	1.30279541015625E-06	9.98724999590195E-07	588428.25	1.01135192380752E-05
1	97	76.1995548076146	0.776824951171875	0.77667236328125	1.3330078125E-06	1.03531021977687E-06	582646.5625	1.02462427093997E-05
1	98	76.3002628073604	0.786895751953125	0.7867431640625	1.3739013671875E-06	1.08090750927659E-06	572634.375	1.0382546861365E-05
1	99	76.4009708071061	0.796966552734375	0.797119140625	1.42730712890625E-06	1.1377337614249E-06	558477.6875	1.05235985756735E-05
1	100	76.5016788068518	0.807037353515625	0.80718994140625	1.4935302734375E-06	1.20556262572791E-06	540457.6875	1.06706747828866E-05
1	101	76.6023868065976	0.817108154296875	0.81695556640625	1.5716552734375E-06	1.28397255139134E-06	519805.8125	1.08250187622616E-05
1	102	76.7030948063433	0.827178955078125	0.82733154296875	1.65771484375E-06	1.3714798114961E-06	499079.53125	1.09876300484757E-05
1	103	76.803802806089	0.837249755859375	0.83740234375	1.744384765625E-06	1.46075183238281E-06	480056	1.11589397420175E-05
1	104	76.9045108058348	0.847320556640625	0.8477783203125	1.822509765625E-06	1.54508427385736E-06	465170.8125	1.13385467557237E-05
1	105	77.0052188055805	0.857391357421875	0.8575439453125	1.88507080078125E-06	1.61653099439718E-06	454913.40625	1.15252387331566E-05
1	106	77.1059268053262	0.867462158203125	0.8673095703125	1.927490234375E-06	1.67173061527137E-06	449968.375	1.17172166937962E-05
1	107	77.206634805072	0.877532958984375	0.877685546875	1.949462890625E-06	1.71101532941975E-06	450219.1875	1.1912436093553E-05
1	108	77.3073428048177	0.887603759765625	0.88836669921875	1.954345703125E-06	1.7361755908496E-06	454559.65625	1.2109008821426E-05
1	109	77.4080508045635	0.897674560546875	0.897216796875	1.94580078125E-06	1.74580509337829E-06	461104.15625	1.23053969218745E-05
1	110	77.5087588043092	0.907745361328125	0.9075927734375	1.92962646484375E-06	1.75131503965531E-06	470346.34375	1.25005399240763E-05
1	111	77.6094668040549	0.917816162109375	0.91796875	1.9091796875E-06	1.75256730017281E-06	480818.40625	1.26938393805176E-05
1	112	77.7101748038007	0.927886962890625	0.92803955078125	1.88720703125E-06	1.75140269220719E-06	491752.9375	1.28850024339044E-05
1	113	77.8108828035464	0.937957763671875	0.93780517578125	1.86614990234375E-06	1.750085061758E-06	502534.75	1.30739990709117E-05
1	114	77.9115908032921	0.948028564453125	0.9478759765625	1.84661865234375E-06	1.75036541349982E-06	513303.59375	1.3260952073324E-05
1	115	78.0122988030379	0.958099365234375	0.958251953125	1.829833984375E-06	1.75344200670224E-06	523682.4375	1.34460760818911E-05
1	116	78.1130068027836	0.968170166015625	0.96832275390625	1.8157958984375E-06	1.75827642578952E-06	533277.3125	1.36296475830022E-05
1	117	78.2137148025294	0.978240966796875	0.97808837890625	1.80389404296875E-06	1.76436776655464E-06	542209.4375	1.38119139592163E-05
1	118	78.3144228022751	0.988311767578125	0.98876953125	1.7950439453125E-06	1.77488470853859E-06	550833.0625	1.39931344165234E-05
1	119	78.4151308020208	0.998382568359375	0.99853515625	1.78802490234375E-06	1.78540562956186E-06	558457.0625	1.41735563374823E-05
1	120	78.5158388017666	1.00845336914063	1.0089111328125	1.78192138671875E-06	1.79780033704446E-06	566192.875	1.43533179652877E-05
1	121	78.6165468015123	1.01852416992188	1.01806640625	1.77734375E-06	1.80945392003196E-06	572802.1875	1.45325411722297E-05
1	122	78.717254801258	1.02859497070313	1.02874755859375	1.77276611328125E-06	1.8237287804368E-06	580306.4375	1.47113032653579E-05
1	123	78.8179628010038	1.03866577148438	1.03851318359375	1.768798828125E-06	1.83692088739917E-06	587129.0625	1.48896351674921E-05
1	124	78.9186708007495	1.04873657226563	1.048583984375	1.76483154296875E-06	1.85057399448851E-06	594155.3125	1.50675678014522E-05
1	125	79.0193788004952	1.05880737304688	1.058349609375	1.76116943359375E-06	1.86393299372867E-06	600935.75	1.52451157191535E-05
1	126	79.120086800241	1.06887817382813	1.06842041015625	1.7578125E-06	1.87808268492518E-06	607812.5	1.54223107529106E-05
1	127	79.2207947999867	1.07894897460938	1.07940673828125	1.75506591796875E-06	1.89442994269484E-06	615023.5	1.55991983774584E-05
1	128	79.3215027997325	1.08901977539063	1.0888671875	1.7529296875E-06	1.90870764527062E-06	621169.9375	1.57758404384367E-05
1	129	79.4222107994782	1.09909057617188	1.0986328125	1.75140380859375E-06	1.92414950106468E-06	627287	1.59522969624959E-05
1	130	79.5229187992239	1.10916137695313	1.10870361328125	1.75079345703125E-06	1.94111112250539E-06	633257.8125	1.61286461661803E-05
1	131	79.6236267989697	1.11923217773438	1.119384765625	1.7510986328125E-06	1.96015298570273E-06	639247.125	1.63049808179494E-05
1	132	79.7243347987154	1.12930297851563	1.1285400390625	1.75201416015625E-06	1.97721806216578E-06	644138.6875	1.64813773153583E-05
1	133	79.8250427984611	1.13937377929688	1.14013671875	1.7535400390625E-06	1.99927535504685E-06	650191.4375	1.66578956850572E-05
1	134	79.9257507982069	1.14944458007813	1.1492919921875	1.756591796875E-06	2.01883676709258E-06	654273.8125	1.68346450664103E-05
1	135	80.0264587979526	1.15951538085938	1.15936279296875	1.7596435546875E-06	2.04006528292666E-06	658862.3125	1.70117000379832E-05
1	136	80.1271667976984	1.16958618164063	1.1700439453125	1.76422119140625E-06	2.06421623261122E-06	663207.0625	1.71891406353097E-05
1	137	80.2278747974441	1.17965698242188	1.17889404296875	1.7694091796875E-06	2.08594588002597E-06	666264.25	1.73670741787646E-05
1	138	80.3285827971898	1.18972778320313	1.1895751953125	1.77459716796875E-06	2.1110165562277E-06	670335.375	1.75455279531889E-05
1	139	80.4292907969356	1.19979858398438	1.19964599609375	1.7803955078125E-06	2.13584416997037E-06	673808.75	1.77245365193812E-05
1	140	80.5299987966813	1.20986938476563	1.209716796875	1.7877197265625E-06	2.16263447327947E-06	676681.4375	1.79042053787271E-05
1	141	80.630706796427	1.21994018554688	1.21978759765625	1.79534912109375E-06	2.18994455281063E-06	679415.3125	1.8084627299686E-05
1	142	80.7314147961728	1.23001098632813	1.2298583984375	1.8035888671875E-06	2.21815889744903E-06	681895.125	1.8265847756993E-05
1	143	80.8321227959185	1.24008178710938	1.2396240234375	1.8115234375E-06	2.24560790229589E-06	684299.25	1.84478831215529E-05
1	144	80.9328307956642	1.25015258789063	1.2506103515625	1.8206787109375E-06	2.27695954890805E-06	686892.375	1.86307788681006E-05
1	145	81.03353879541	1.26022338867188	1.26007080078125	1.83013916015625E-06	2.30610476137372E-06	688510.9375	1.88146132131806E-05
1	146	81.1342467951557	1.27029418945313	1.27044677734375	1.84051513671875E-06	2.33827654483321E-06	690267	1.89994443644537E-05
1	147	81.2349547949015	1.28036499023438	1.28021240234375	1.851806640625E-06	2.3707057152933E-06	691331.625	1.91853687283583E-05
1	148	81.3356627946472	1.29043579101563	1.2908935546875	1.86370849609375E-06	2.40584927269083E-06	692647.8125	1.93724590644706E-05
1	149	81.4363707943929	1.30050659179688	1.300048828125	1.8768310546875E-06	2.43997192228562E-06	692682.9375	1.95608099602396E-05
1	150	81.5370787941387	1.31057739257813	1.31072998046875	1.89117431640625E-06	2.47881894210877E-06	693077.3125	1.97505451069446E-05
1	151	81.6377867938844	1.32064819335938	1.32080078125	1.90582275390625E-06	2.51721212407574E-06	693034.4375	1.99417390831513E-05
1	152	81.7384947936301	1.33071899414063	1.33056640625	1.92230224609375E-06	2.55775057667051E-06	692173.4375	2.01344992092345E-05
1	153	81.8392027933759	1.34078979492188	1.34063720703125	1.939697265625E-06	2.60043043454061E-06	691157.9375	2.03289673663676E-05
1	154	81.9399107931216	1.35086059570313	1.35040283203125	1.95892333984375E-06	2.64533559857227E-06	689359.6875	2.05252781597665E-05
1	155	82.0406187928673	1.36093139648438	1.3604736328125	1.97967529296875E-06	2.69329598268087E-06	687220.625	2.07236025744351E-05
1	156	82.1413267926131	1.37100219726563	1.37115478515625	2.00347900390625E-06	2.74707986136491E-06	684386.875	2.09241698030382E-05
1	157	82.2420347923588	1.38107299804688	1.38092041015625	2.02972412109375E-06	2.8028873657604E-06	680348.8125	2.11272581509547E-05
1	158	82.3427427921046	1.39114379882813	1.39068603515625	2.060546875E-06	2.86557383333275E-06	674911.125	2.13332205021288E-05
1	159	82.4434507918503	1.40121459960938	1.4013671875	2.0953369140625E-06	2.93633638648316E-06	668802.8125	2.15424843190704E-05
1	160	82.544158791596	1.41128540039063	1.4111328125	2.13592529296875E-06	3.01407430924883E-06	660665.8125	2.17555461858865E-05
1	161	82.6448667913418	1.42135620117188	1.42120361328125	2.1832275390625E-06	3.10281075144303E-06	650964.5	2.1973031834932E-05
1	162	82.7455747910875	1.43142700195313	1.4312744140625	2.23876953125E-06	3.20429330713523E-06	639313	2.21956979657989E-05
1	163	82.8462827908332	1.44149780273438	1.44134521484375	2.3028564453125E-06	3.31921091856202E-06	625894.5625	2.24243867705809E-05
1	164	82.946990790579	1.45156860351563	1.451416015625	2.3773193359375E-06	3.45047942573729E-06	610526.3125	2.26600532187149E-05
1	165	83.0476987903247	1.46163940429688	1.4617919921875	2.46490478515625E-06	3.60317812919675E-06	593041.9375	2.29038778343238E-05
1	166	83.1484067900705	1.47171020507813	1.47186279296875	2.56683349609375E-06	3.77802666662319E-06	573415.75	2.31572466873331E-05
1	167	83.2491147898162	1.48178100585938	1.48162841796875	2.685546875E-06	3.9789824768377E-06	551704.5625	2.34217241086299E-05
1	168	83.3498227895619	1.49185180664063	1.49169921875	2.823486328125E-06	4.21179220211343E-06	528318.1875	2.36991254496388E-05
1	169	83.4505307893077	1.50192260742188	1.5020751953125	2.97576904296875E-06	4.46982858193223E-06	504768.78125	2.39911423705053E-05
1	170	83.5512387890534	1.49185180664063	1.49139404296875	2.618408203125E-06	3.90507830161368E-06	569580.4375	2.42728310695384E-05
1	171	83.6519467887991	1.48178100585938	1.48162841796875	2.353515625E-06	3.48703565578035E-06	629538.375	2.45231876760954E-05
1	172	83.7526547885449	1.47171020507813	1.47186279296875	2.14447021484375E-06	3.15636589220958E-06	686352.625	2.47496791416779E-05
1	173	83.8533627882906	1.46163940429688	1.461181640625	1.973876953125E-06	2.88419255412009E-06	740259.8125	2.49570548476186E-05
1	174	83.9540707880363	1.45156860351563	1.4520263671875	1.83258056640625E-06	2.66095526058052E-06	792339.75	2.51487235800596E-05
1	175	84.0547787877821	1.44149780273438	1.44134521484375	1.71478271484375E-06	2.47159391619789E-06	840541.0625	2.53273483394878E-05
1	176	84.1554867875278	1.43142700195313	1.431884765625	1.614990234375E-06	2.31247986448579E-06	886621.3125	2.5495015506749E-05
1	177	84.2561947872736	1.42135620117188	1.4215087890625	1.53076171875E-06	2.17599108509603E-06	928628.4375	2.56534167419886E-05
1	178	84.3569027870193	1.41128540039063	1.4111328125	1.45965576171875E-06	2.05976812139852E-06	966757.25	2.5803996322793E-05
1	179	84.457610786765	1.40121459960938	1.4007568359375	1.39739990234375E-06	1.95741745301348E-06	1002402.3125	2.59478601947194E-05
1	180	84.5583187865108	1.39114379882813	1.39068603515625	1.3446044921875E-06	1.86992269846087E-06	1034271.4375	2.60859324043849E-05
1	181	84.6590267862565	1.38107299804688	1.38092041015625	1.29791259765625E-06	1.79231403762969E-06	1063954.875	2.62189932982437E-05
1	182	84.7597347860022	1.37100219726563	1.37176513671875	1.2579345703125E-06	1.72559066413669E-06	1090490.125	2.63476904365234E-05
1	183	84.860442785748	1.36093139648438	1.3604736328125	1.22222900390625E-06	1.66281029123638E-06	1113108.625	2.64725767920027E-05
1	184	84.9611507854937	1.35086059570313	1.35101318359375	1.18988037109375E-06	1.60754404987529E-06	1135419.375	2.65940361714456E-05
1	185	85.0618587852395	1.34078979492188	1.3409423828125	1.16180419921875E-06	1.55791246925219E-06	1154189.625	2.67124523816165E-05
1	186	85.1625667849852	1.33071899414063	1.33056640625	1.13525390625E-06	1.5105307511476E-06	1172043	2.68281182798091E-05
1	187	85.2632747847309	1.32064819335938	1.32049560546875	1.112060546875E-06	1.46847105497727E-06	1187431.375	2.69412794295931E-05
1	188	85.3639827844767	1.31057739257813	1.31011962890625	1.09130859375E-06	1.42974477057578E-06	1200503.375	2.70522286882624E-05
1	189	85.4646907842224	1.30050659179688	1.30126953125	1.07177734375E-06	1.39467113058345E-06	1214123	2.71611479547573E-05
1	190	85.5653987839681	1.29043579101563	1.2908935546875	1.0540771484375E-06	1.36070127609855E-06	1224667.125	2.72681936621666E-05
1	191	85.6661067837139	1.28036499023438	1.280517578125	1.03729248046875E-06	1.32827119614376E-06	1234480.75	2.73735022346955E-05
1	192	85.7668147834596	1.27029418945313	1.27044677734375	1.021728515625E-06	1.29805164306163E-06	1243428.875	2.74771828117082E-05
1	193	85.8675227832053	1.26022338867188	1.2603759765625	1.007080078125E-06	1.2692995596808E-06	1251515.125	2.75793408945901E-05
1	194	85.9682307829511	1.25015258789063	1.2506103515625	9.9334716796875E-07	1.24229018183541E-06	1258986.25	2.76800692518009E-05
1	195	86.0689387826968	1.24008178710938	1.23992919921875	9.80224609374999E-07	1.21540915642981E-06	1264944	2.77794479188742E-05
1	196	86.1696467824426	1.23001098632813	1.2298583984375	9.68322753906251E-07	1.19089986583276E-06	1270091.375	2.78775642073015E-05
1	197	86.2703547821883	1.21994018554688	1.21978759765625	9.5672607421875E-07	1.16700255148317E-06	1274960.25	2.79744981526164E-05
1	198	86.371062781934	1.20986938476563	1.20941162109375	9.4512939453125E-07	1.14305044007779E-06	1279625.5	2.80702643067343E-05
1	199	86.4717707816798	1.19979858398438	1.19964599609375	9.3414306640625E-07	1.12064094537345E-06	1284220.875	2.8164893592475E-05
1	200	86.5724787814255	1.18972778320313	1.18988037109375	9.234619140625E-07	1.09880920717842E-06	1288499.75	2.82584314845735E-05
1	201	86.6731867811712	1.17965698242188	1.17950439453125	9.130859375E-07	1.07698883766716E-06	1291778.125	2.83509089058498E-05
1	202	86.773894780917	1.16958618164063	1.16973876953125	9.0301513671875E-07	1.05629180779943E-06	1295370.125	2.84423567791237E-05
1	203	86.8746027806627	1.15951538085938	1.15966796875	8.93554687500001E-07	1.03622676306259E-06	1297814.25	2.85328205791302E-05
1	204	86.9753107804084	1.14944458007813	1.14959716796875	8.837890625E-07	1.01600141988456E-06	1300759.75	2.86223166767741E-05
1	205	87.0760187801542	1.13937377929688	1.13922119140625	8.7432861328125E-07	9.9605369996425E-07	1302966.875	2.87108450720552E-05
1	206	87.1767267798999	1.12930297851563	1.1297607421875	8.6517333984375E-07	9.77438844529388E-07	1305820.125	2.87984366877936E-05
1	207	87.2774347796457	1.11923217773438	1.1187744140625	8.55407714843751E-07	9.57008182922436E-07	1307884.5	2.88850751530845E-05
1	208	87.3781427793914	1.10916137695313	1.10931396484375	8.45947265625E-07	9.38421067075978E-07	1311327.625	2.89707440970233E-05
1	209	87.4788507791371	1.09909057617188	1.09893798828125	8.36791992187499E-07	9.1958247594448E-07	1313275	2.90554780804086E-05
1	210	87.5795587788829	1.08901977539063	1.08917236328125	8.2672119140625E-07	9.00441875728575E-07	1317460.375	2.91392425424419E-05
1	211	87.6802667786286	1.07894897460938	1.0791015625	8.1756591796875E-07	8.82236633970024E-07	1319895.5	2.92220393021125E-05
1	212	87.7809747783743	1.06887817382813	1.06842041015625	8.06274414062499E-07	8.61440014432446E-07	1325132.5	2.93038046947913E-05
1	213	87.8816827781201	1.05880737304688	1.05865478515625	7.95898437500001E-07	8.42581641791185E-07	1330138.125	2.93844805128174E-05
1	214	87.9823907778658	1.04873657226563	1.048583984375	7.843017578125E-07	8.22406263978337E-07	1336965	2.94640503852861E-05
1	215	88.0830987776116	1.03866577148438	1.03851318359375	7.720947265625E-07	8.01830537966453E-07	1345059.25	2.95424215437379E-05
1	216	88.1838067773573	1.02859497070313	1.0284423828125	7.58972167968749E-07	7.80559105351131E-07	1355046.25	2.96195157716284E-05
1	217	88.284514777103	1.01852416992188	1.01837158203125	7.464599609375E-07	7.60173577418755E-07	1364268.25	2.96953203360317E-05
1	218	88.3852227768488	1.00845336914063	1.00860595703125	7.32421875E-07	7.38725077553681E-07	1377083.375	2.97697879432235E-05
1	219	88.4859307765945	0.998382568359375	0.99853515625	7.19604492187501E-07	7.1855038186186E-07	1387616.625	2.98429040412884E-05
1	220	88.5866387763402	0.988311767578125	0.98846435546875	7.07092285156249E-07	6.98935537002399E-07	1397928.375	2.99147432087921E-05
1	221	88.687346776086	0.978240966796875	0.97869873046875	6.95190429687501E-07	6.80381958773069E-07	1407813.875	2.99853545584483E-05
1	222	88.7880547758317	0.968170166015625	0.96832275390625	6.82983398437501E-07	6.61348337871459E-07	1417783.75	3.0054750823183E-05
1	223	88.8887627755774	0.958099365234375	0.958251953125	6.70471191406249E-07	6.4248035869241E-07	1429221.625	3.01229028991656E-05
1	224	88.9894707753232	0.948028564453125	0.9478759765625	6.573486328125E-07	6.23084929429751E-07	1441968.5	3.01897634926718E-05
1	225	89.0901787750689	0.937957763671875	0.93780517578125	6.4117431640625E-07	6.01296619606728E-07	1462636.875	3.0255150704761E-05
1	226	89.1908867748147	0.927886962890625	0.92803955078125	6.21643066406249E-07	5.76909314986551E-07	1492881.75	3.03187371173408E-05
1	227	89.2915947745604	0.917816162109375	0.9173583984375	5.96923828125E-07	5.47593060673535E-07	1536809.875	3.03800970868906E-05
1	228	89.3923027743061	0.907745361328125	0.90789794921875	5.65185546875E-07	5.13130771651049E-07	1606371.5	3.04386139760027E-05
1	229	89.4930107740519	0.897674560546875	0.8978271484375	5.2337646484375E-07	4.6990157898108E-07	1715451.875	3.04934274026891E-05
1	230	89.5937187737976	0.887603759765625	0.887451171875	4.69970703125E-07	4.1707605191732E-07	1888311.75	3.05434477922972E-05
1	231	89.6944267735433	0.877532958984375	0.87799072265625	4.0252685546875E-07	3.53414833398347E-07	2181198	3.05873800243717E-05
1	232	89.7951347732891	0.867462158203125	0.8673095703125	3.22570800781249E-07	2.79768727295959E-07	2688741.75	3.06238907796796E-05
1	233	89.8958427730348	0.857391357421875	0.85784912109375	2.30712890625E-07	1.97916847355373E-07	3718254	3.06517504213843E-05
1	234	89.9965507727806	0.847320556640625	0.84747314453125	1.3427734375E-07	1.13796438938607E-07	6311363.5	3.06701294903178E-05
1	235	90.0972587725263	0.837249755859375	0.83709716796875	4.05883789062506E-08	3.39764163470591E-08	20624060	3.06789370370097E-05
1	236	90.197966772272	0.827178955078125	0.82763671875	-4.15039062499997E-08	-3.43501582733552E-08	-19941176	3.06788897432853E-05
1	237	90.2986747720178	0.817108154296875	0.81695556640625	-1.0345458984375E-07	-8.45178007580216E-08	-7896755	3.06715919577982E-05
1	238	90.3993827717635	0.807037353515625	0.80718994140625	-1.4373779296875E-07	-1.16023699092693E-07	-5615711	3.06591427943204E-05
1	239	90.5000907715092	0.796966552734375	0.79742431640625	-1.617431640625E-07	-1.28977930557994E-07	-4930189	3.0643761419924E-05
1	240	90.600798771255	0.786895751953125	0.787353515625	-1.629638671875E-07	-1.28310162494927E-07	-4831461	3.06274123431649E-05
1	241	90.7015067710007	0.776824951171875	0.7769775390625	-1.51672363281249E-07	-1.17846013836242E-07	-5122737	3.061156894546E-05
1	242	90.8022147707464	0.766754150390625	0.7666015625	-1.32141113281251E-07	-1.01299583832315E-07	-5801386	3.0597275326727E-05
1	243	90.9029227704922	0.756683349609375	0.7568359375	-1.0955810546875E-07	-8.29175093031154E-08	-6908078.5	3.05851062876172E-05
1	244	91.0036307702379	0.746612548828125	0.74652099609375	-8.60595703124994E-08	-6.42452704369134E-08	-8674469	3.05752546410076E-05
1	245	91.1043387699837	0.736541748046875	0.736480712890625	-6.28662109374997E-08	-4.62997498118511E-08	-11715049	3.05677567666862E-05
1	246	91.2050467697294	0.726470947265625	0.726470947265625	-4.18090820312494E-08	-3.0373083603763E-08	-17375912	3.05624853353947E-05
1	247	91.3057547694751	0.716400146484375	0.716339111328125	-2.44140625E-08	-1.74887482273789E-08	-29341250	3.05591529468074E-05
1	248	91.4064627692209	0.706329345703125	0.706268310546875	-1.15966796875006E-08	-8.19036660715255E-09	-60902636	3.05573375953827E-05
1	249	91.5071707689666	0.696258544921875	0.696136474609375	-2.44140625000056E-09	-1.69955194362359E-09	-285137504	3.05566318274941E-05
1	250	91.6078787687123	0.686187744140625	0.686126708984375	2.74658203125028E-09	1.88450322013978E-09	249811104	3.05566463794094E-05
1	251	91.7085867684581	0.676116943359375	0.67608642578125	6.103515625E-09	4.12650402736858E-09	110770000	3.05570938508026E-05
1	252	91.8092947682038	0.666046142578125	0.665985107421875	9.1552734375E-09	6.09727557332462E-09	72743336	3.05578614643309E-05
1	253	91.9100027679495	0.655975341796875	0.65594482421875	1.31225585937506E-08	8.60767368493498E-09	49986048	3.05589819618035E-05
1	254	92.0107107676953	0.645904541015625	0.6458740234375	2.01416015624997E-08	1.3008936150527E-08	32066668	3.05606590700336E-05
1	255	92.111418767441	0.635833740234375	0.635833740234375	2.96020507812494E-08	1.88219821950497E-08	21479382	3.05631619994529E-05
1	256	92.2121267671868	0.625762939453125	0.62567138671875	4.05883789062506E-08	2.53949874462478E-08	15415038	3.05666981148534E-05
1	257	92.3128347669325	0.615692138671875	0.615631103515625	5.18798828125E-08	3.19388675507071E-08	11866471	3.05713510897476E-05
1	258	92.4135427666782	0.605621337890625	0.605621337890625	6.22558593750003E-08	3.7703475896933E-08	9727941	3.05770990962628E-05
1	259	92.514250766424	0.595550537109375	0.595550537109375	7.11059570312506E-08	4.23471924193564E-08	8375536.5	3.05838148051407E-05
1	260	92.6149587661697	0.585479736328125	0.585479736328125	7.96508789062497E-08	4.66339713511843E-08	7350575	3.05914072669111E-05
1	261	92.7156667659154	0.575408935546875	0.575439453125	8.697509765625E-08	5.00489001353799E-08	6616141	3.05997964460403E-05
1	262	92.8163747656612	0.565338134765625	0.565277099609375	9.36889648437495E-08	5.29602246501781E-08	6033551	3.06088950310368E-05
1	263	92.9170827654069	0.555267333984375	0.55517578125	9.918212890625E-08	5.50635128604426E-08	5597538.5	3.06186047964729E-05
1	264	93.0177907651527	0.545196533203125	0.545196533203125	1.04675292968751E-07	5.70686040646251E-08	5208455	3.06288711726665E-05
1	265	93.1184987648984	0.535125732421875	0.53509521484375	1.08947753906249E-07	5.82974202245623E-08	4911484.5	3.06396286759991E-05
1	266	93.2192067646441	0.525054931640625	0.525054931640625	1.1322021484375E-07	5.94468296810646E-08	4637466.5	3.06508154608309E-05
1	267	93.3199147643899	0.514984130859375	0.514984130859375	1.1627197265625E-07	5.9878217939513E-08	4429134	3.06623696815223E-05
1	268	93.4206227641356	0.504913330078125	0.504913330078125	1.1932373046875E-07	6.02481406986044E-08	4231458	3.06742331304122E-05
1	269	93.5213307638813	0.494842529296875	0.494842529296875	1.220703125E-07	6.04055756525668E-08	4053750.25	3.06863876176067E-05
1	270	93.6220387636271	0.484771728515625	0.4847412109375	1.239013671875E-07	6.00600955635855E-08	3912315.5	3.06987749354448E-05
1	271	93.7227467633728	0.474700927734375	0.474639892578125	1.25732421874999E-07	5.96776175143532E-08	3775000.25	3.07113441522233E-05
1	272	93.8234547631185	0.464630126953125	0.464599609375	1.26953125E-07	5.8982372763694E-08	3659615.25	3.07240698020905E-05
1	273	93.9241627628643	0.454559326171875	0.454620361328125	1.2847900390625E-07	5.8409170833329E-08	3538479.75	3.07369300571736E-05
1	274	94.02487076261	0.444488525390625	0.444427490234375	1.28784179687499E-07	5.72352298888745E-08	3450947.75	3.07498848997056E-05
1	275	94.1255787623558	0.434417724609375	0.434417724609375	1.2939453125E-07	5.6211273857798E-08	3357311.5	3.07628833979834E-05
1	276	94.2262867621015	0.424346923828125	0.42425537109375	1.2969970703125E-07	5.50257936993148E-08	3271059	3.07759328279644E-05
1	277	94.3269947618472	0.414276123046875	0.414337158203125	1.300048828125E-07	5.38658504467548E-08	3187089.25	3.07890077237971E-05
1	278	94.427702761593	0.404205322265625	0.40423583984375	1.29089355468751E-07	5.21825462840297E-08	3131442	3.08020535157993E-05
1	279	94.5284107613387	0.394134521484375	0.3941650390625	1.2847900390625E-07	5.06419297607863E-08	3067933.5	3.08150229102466E-05
1	280	94.6291187610844	0.384063720703125	0.384124755859375	1.27563476562501E-07	4.90002847186588E-08	3011244.25	3.0827915907139E-05
1	281	94.7298267608302	0.373992919921875	0.373992919921875	1.27258300781249E-07	4.75937049770891E-08	2938848.75	3.08407470583916E-05
1	282	94.8305347605759	0.363922119140625	0.36395263671875	1.263427734375E-07	4.59827838028559E-08	2880676.5	3.08535200019833E-05
1	283	94.9312427603217	0.353851318359375	0.353912353515625	1.26037597656251E-07	4.46062600190089E-08	2807990.5	3.08662274619564E-05
1	284	95.0319507600674	0.343780517578125	0.34381103515625	1.251220703125E-07	4.30183497712733E-08	2747804.75	3.08788730762899E-05
1	285	95.1326587598131	0.333709716796875	0.33367919921875	1.2481689453125E-07	4.16487999643778E-08	2673349.75	3.08914604829624E-05
1	286	95.2333667595589	0.323638916015625	0.323638916015625	1.24206542968749E-07	4.0198067097208E-08	2605651.25	3.09039969579317E-05
1	287	95.3340747593046	0.313568115234375	0.313568115234375	1.23291015625E-07	3.8660132872792E-08	2543316.75	3.09164606733248E-05
1	288	95.4347827590503	0.303497314453125	0.303497314453125	1.21459960937501E-07	3.68627723901227E-08	2498743.75	3.09287861455232E-05
1	289	95.5354907587961	0.293426513671875	0.29345703125	1.2054443359375E-07	3.53746116843467E-08	2434430.5	3.09409697365481E-05
1	290	95.6361987585418	0.283355712890625	0.28338623046875	1.1871337890625E-07	3.36417365076613E-08	2387146.75	3.09530187223572E-05
1	291	95.7369067582875	0.273284912109375	0.27337646484375	1.1749267578125E-07	3.21197326513811E-08	2326753.25	3.09649112750776E-05
1	292	95.8376147580333	0.263214111328125	0.263214111328125	1.15356445312501E-07	3.03634450915524E-08	2281746	3.09766364807729E-05
1	293	95.938322757779	0.253143310546875	0.253173828125	1.1322021484375E-07	2.8664393525446E-08	2236118.75	3.09881470457185E-05
1	294	96.0390307575248	0.243072509765625	0.2430419921875	1.10778808593751E-07	2.69239013306333E-08	2193939.5	3.09994247800205E-05
1	295	96.1397387572705	0.233001708984375	0.232940673828125	1.07727050781251E-07	2.5094010425164E-08	2162323	3.10104296659119E-05
1	296	96.2404467570162	0.222930908203125	0.22296142578125	1.0498046875E-07	2.34065939963557E-08	2123837.25	3.102113987552E-05
1	297	96.341154756762	0.212860107421875	0.21295166015625	1.0101318359375E-07	2.15109245971234E-08	2108157.25	3.1031511753099E-05
1	298	96.4418627565077	0.202789306640625	0.20281982421875	9.73510742187503E-08	1.97447267424877E-08	2083385.625	3.10415016429033E-05
1	299	96.5425707562534	0.192718505859375	0.19268798828125	9.27734375000003E-08	1.78763261970971E-08	2076973.75	3.10510731651448E-05
1	300	96.6432787559992	0.182647705078125	0.18267822265625	8.72802734374997E-08	1.59442041791635E-08	2093007.125	3.1060139008332E-05
1	301	96.7439867557449	0.172576904296875	0.17254638671875	8.05664062500003E-08	1.39014417754879E-08	2141666.75	3.10685936710797E-05
1	302	96.8446947554907	0.162506103515625	0.16259765625	7.29370117187503E-08	1.18593872500128E-08	2229288.75	3.1076320738066E-05
1	303	96.9454027552364	0.152435302734375	0.1524658203125	6.28662109374997E-08	9.58494794645048E-09	2425243	3.10831601382233E-05
1	304	97.0461107549821	0.142364501953125	0.142425537109375	5.00488281250003E-08	7.12823089443759E-09	2845731.75	3.10888462990988E-05
1	305	97.1468187547279	0.132293701171875	0.132354736328125	3.35693359375E-08	4.44306058611232E-09	3942727.25	3.10930554405786E-05
1	306	97.2475267544736	0.122222900390625	0.122314453125	1.15966796875006E-08	1.41844147538706E-09	10547369	3.1095329177333E-05
1	307	97.3482347542193	0.112152099609375	0.112152099609375	-1.89208984374994E-08	-2.12201856086836E-09	-5927419.5	3.10949617414735E-05
1	308	97.4489427539651	0.102081298828125	0.10211181640625	-5.82885742187497E-08	-5.9519522643825E-09	-1751832.5	3.10910727421287E-05
1	309	97.5496507537108	0.092010498046875	0.092071533203125	-1.129150390625E-07	-1.03962607411745E-08	-815405.375	3.10824543703347E-05
1	310	97.6503587534565	0.081939697265625	0.08203125	-1.873779296875E-07	-1.53708459293966E-08	-437785.03125	3.10673312924337E-05
1	311	97.7510667532023	0.071868896484375	0.071929931640625	-2.87475585937499E-07	-2.06780992328959E-08	-250212.3125	3.10434224957135E-05
1	312	97.851774752948	0.061798095703125	0.06182861328125	-4.1839599609375E-07	-2.58688430676557E-08	-147775.34375	3.10078794427682E-05
1	313	97.9524827526938	0.051727294921875	0.0517578125	-5.841064453125E-07	-3.02320728451377E-08	-88610.2421875	3.0957398848841E-05
1	314	98.0531907524395	0.041656494140625	0.0417449951171875	-7.85217285156251E-07	-3.27788924892047E-08	-53163.625	3.08884482365102E-05
1	315	98.1538987521852	0.031585693359375	0.031658935546875	-1.015625E-06	-3.21536077763085E-08	-31171.875	3.07977679767646E-05
1	316	98.254606751931	0.021514892578125	0.0215972900390625	-1.2591552734375E-06	-2.71943427776478E-08	-17152.205078125	3.06832225760445E-05
1	317	98.3553147516767	0.011444091796875	0.011553955078125	-1.49627685546875E-06	-1.72879150994731E-08	-7721.80322265625	3.05444773402996E-05
1	318	98.4560227514224	0.001373291015625	0.001495361328125	-1.7022705078125E-06	-2.54550935885334E-09	-878.451110839844	3.03834167425521E-05
1	319	98.5567307511682	-0.008697509765625	-0.00861511230468751	-1.85699462890625E-06	1.59982160852223E-08	4639.27685546875	3.02041935356101E-05
1	320	98.6574387509139	-0.018768310546875	-0.01866455078125	-1.95037841796875E-06	3.64029340005345E-08	9569.70703125	3.00124775094446E-05
1	321	98.7581467506596	-0.028839111328125	-0.0287445068359375	-1.9842529296875E-06	5.70363702934173E-08	14486.3134765625	2.98143531836104E-05
1	322	98.8588547504054	-0.038909912109375	-0.038763427734375	-1.96990966796875E-06	7.63604433018372E-08	19677.76953125	2.96152447845088E-05
1	323	98.9595627501511	-0.048980712890625	-0.0488128662109375	-1.922607421875E-06	9.38479800538516E-08	25388.888671875	2.94192414003192E-05
1	324	99.0602707498969	-0.059051513671875	-0.05902099609375	-1.8560791015625E-06	1.09547634963292E-07	31798.751953125	2.922896965174E-05
1	325	99.1609787496426	-0.069122314453125	-0.069061279296875	-1.7822265625E-06	1.23082841696487E-07	38750	2.90457664959831E-05
1	326	99.2616867493883	-0.079193115234375	-0.079132080078125	-1.708984375E-06	1.35235481479867E-07	46303.57421875	2.8869968446088E-05
1	327	99.3623947491341	-0.089263916015625	-0.08917236328125	-1.63970947265625E-06	1.46216763141638E-07	54383.02734375	2.87013499473687E-05
1	328	99.4631027488798	-0.099334716796875	-0.099273681640625	-1.5771484375E-06	1.56569328169098E-07	62945.046875	2.85393671219936E-05
1	329	99.5638107486255	-0.109405517578125	-0.109375	-1.5216064453125E-06	1.66425692782468E-07	71881.2734375	2.8383332391968E-05
1	330	99.6645187483713	-0.119476318359375	-0.119384765625	-1.473388671875E-06	1.75900154886222E-07	81027.34375	2.82325236184988E-05
1	331	99.765226748117	-0.129547119140625	-0.129486083984375	-1.4312744140625E-06	1.85330122803862E-07	90469.0859375	2.80862604995491E-05
1	332	99.8659347478628	-0.139617919921875	-0.139495849609375	-1.395263671875E-06	1.94633486216844E-07	99978.125	2.79439336736687E-05
1	333	99.9666427476085	-0.149688720703125	-0.149658203125	-1.36474609375E-06	2.04245438339967E-07	109660.109375	2.78049556072801E-05
1	334	100.067350747354	-0.159759521484375	-0.159637451171875	-1.33880615234375E-06	2.13723595265947E-07	119238.6640625	2.76688224403188E-05
1	335	100.1680587471	-0.169830322265625	-0.169708251953125	-1.31683349609375E-06	2.23477513827675E-07	128876.015625	2.75350994343171E-05
1	336	100.268766746846	-0.179901123046875	-0.179718017578125	-1.298828125E-06	2.33422809969852E-07	138369.359375	2.74033900495851E-05
1	337	100.369474746591	-0.189971923828125	-0.189788818359375	-1.2841796875E-06	2.43722951154268E-07	147789.921875	2.7273325031274E-05
1	338	100.470182746337	-0.200042724609375	-0.19989013671875	-1.2725830078125E-06	2.54376772090836E-07	157074.34375	2.71445824182592E-05
1	339	100.570890746083	-0.189971923828125	-0.189788818359375	-1.1151123046875E-06	2.11635835967172E-07	170197.046875	2.70243526756531E-05
2	340	100.671598745829	-0.179901123046875	-0.1798095703125	-1.007080078125E-06	1.81082640438035E-07	178545.453125	2.6917492505163E-05
2	341	100.772306745574	-0.169830322265625	-0.16973876953125	-9.197998046875E-07	1.56125679495744E-07	184538.828125	2.68204657913884E-05
2	342	100.87301474532	-0.159759521484375	-0.159576416015625	-8.45947265625E-07	1.34993229039537E-07	188636.375	2.67315535893431E-05
2	343	100.973722745066	-0.149688720703125	-0.14959716796875	-7.80029296875E-07	1.16690166862554E-07	191784.046875	2.66496790573001E-05
2	344	101.074430744812	-0.139617919921875	-0.13958740234375	-7.20825195312499E-07	1.00618116505302E-07	193649.453125	2.6574105504551E-05
2	345	101.175138744557	-0.129547119140625	-0.12945556640625	-6.6558837890625E-07	8.61641140659231E-08	194497.953125	2.65042926912429E-05
2	346	101.275846744303	-0.119476318359375	-0.119415283203125	-6.1370849609375E-07	7.32861735741608E-08	194579.8125	2.64398750005057E-05
2	347	101.376554744049	-0.109405517578125	-0.109344482421875	-5.6304931640625E-07	6.15663324765592E-08	194200.546875	2.63806214206852E-05
2	348	101.477262743795	-0.099334716796875	-0.0992431640625	-5.108642578125E-07	5.06997857030456E-08	194265.234375	2.63265446847072E-05
2	349	101.57797074354	-0.089263916015625	-0.0892333984375	-4.5623779296875E-07	4.07116473866154E-08	195585.28125	2.62778485193849E-05
2	350	101.678678743286	-0.079193115234375	-0.079132080078125	-3.9520263671875E-07	3.12732062468513E-08	200231.671875	2.62349749391433E-05
2	351	101.779386743032	-0.069122314453125	-0.069061279296875	-3.24401855468751E-07	2.24036060814115E-08	212888.0625	2.61987388512352E-05
2	352	101.880094742777	-0.059051513671875	-0.0589599609375	-2.3834228515625E-07	1.40526514869066E-08	247375.171875	2.61704026343068E-05
2	353	101.980802742523	-0.048980712890625	-0.04881591796875	-1.32141113281251E-07	6.45058939596765E-09	369422.625	2.6151747078984E-05
2	354	102.081510742269	-0.038909912109375	-0.0387908935546875	1.52587890625E-09	-5.91902013513668E-11	-25422000	2.61451714322902E-05
2	355	102.182218742015	-0.028839111328125	-0.0286956787109375	1.678466796875E-07	-4.81647433048238E-09	-170963.640625	2.6153698854614E-05
2	356	102.28292674176	-0.018768310546875	-0.0186309814453125	3.6773681640625E-07	-6.85129775135351E-09	-50663.8984375	2.6180667191511E-05
2	357	102.383634741506	-0.008697509765625	-0.0085784912109375	5.99060058593751E-07	-5.13903142262961E-09	-14319.9189453125	2.62293506239075E-05
2	358	102.484342741252	0.001373291015625	0.001483154296875	8.514404296875E-07	1.26281740620016E-09	1741.93542480469	2.63023885054281E-05
2	359	102.585050740998	0.011444091796875	0.011529541015625	1.10626220703125E-06	1.27546950778878E-08	10422.0693359375	2.64009668171639E-05
2	360	102.685758740743	0.021514892578125	0.0216094970703125	1.34033203125E-06	2.89638997230668E-08	16122.4951171875	2.65241633314872E-05
2	361	102.786466740489	0.031585693359375	0.031658935546875	1.533203125E-06	4.8539579466933E-08	20648.88671875	2.66688566625817E-05
2	362	102.887174740235	0.041656494140625	0.04176025390625	1.668701171875E-06	6.96853845738588E-08	25025.60546875	2.68300846073544E-05
2	363	102.987882739981	0.051727294921875	0.051727294921875	1.74285888671875E-06	9.01533780961472E-08	29679.56640625	2.70018717856146E-05
2	364	103.088590739726	0.061798095703125	0.061859130859375	1.7620849609375E-06	1.09001042858381E-07	35105.6484375	2.71783592324937E-05
2	365	103.189298739472	0.071868896484375	0.0718994140625	1.7401123046875E-06	1.25113047033665E-07	41318.8359375	2.7354708436178E-05
2	366	103.290006739218	0.081939697265625	0.082000732421875	1.6925048828125E-06	1.38786631964649E-07	48449.3359375	2.75275542662712E-05
2	367	103.390714738964	0.092010498046875	0.092041015625	1.63055419921875E-06	1.50077866578613E-07	56447.69140625	2.76948831015034E-05
2	368	103.491422738709	0.102081298828125	0.102081298828125	1.56463623046875E-06	1.59720087822279E-07	65242.8359375	2.78557745332364E-05
2	369	103.592130738455	0.112152099609375	0.1121826171875	1.49871826171875E-06	1.68130128486155E-07	74852.375	2.80100266536465E-05
2	370	103.692838738201	0.122222900390625	0.122344970703125	1.4373779296875E-06	1.75855959128057E-07	85116.7734375	2.81578704743879E-05
2	371	103.793546737946	0.132293701171875	0.13226318359375	1.3812255859375E-06	1.82685283789397E-07	95757.8515625	2.8299798941589E-05
2	372	103.894254737692	0.142364501953125	0.14239501953125	1.33087158203125E-06	1.89509478332184E-07	106993.8125	2.8436363209039E-05
2	373	103.994962737438	0.152435302734375	0.1524658203125	1.28662109375E-06	1.96165743204801E-07	118500.9453125	2.85681653622305E-05
2	374	104.095670737184	0.162506103515625	0.1624755859375	1.24725341796875E-06	2.02648223535107E-07	130266.703125	2.86957547359634E-05
2	375	104.196378736929	0.172576904296875	0.172576904296875	1.2115478515625E-06	2.09085172286905E-07	142443.328125	2.88195660687052E-05
2	376	104.297086736675	0.182647705078125	0.182647705078125	1.180419921875E-06	2.15600977071517E-07	154731.140625	2.8940010452061E-05
2	377	104.397794736421	0.192718505859375	0.192718505859375	1.15325927734375E-06	2.22254413984047E-07	167107.703125	2.90575208055088E-05
2	378	104.498502736167	0.202789306640625	0.202880859375	1.129150390625E-06	2.29082999680941E-07	179675.671875	2.91724500129931E-05
2	379	104.599210735912	0.212860107421875	0.21282958984375	1.107177734375E-06	2.35640172263629E-07	192227.125	2.92850581899984E-05
2	380	104.699918735658	0.222930908203125	0.222930908203125	1.0882568359375E-06	2.42606063238782E-07	204851.375	2.93956072709989E-05
2	381	104.800626735404	0.233001708984375	0.233001708984375	1.070556640625E-06	2.49441541200213E-07	217645.375	2.95043118967442E-05
2	382	104.90133473515	0.243072509765625	0.2430419921875	1.0552978515625E-06	2.56481683891252E-07	230306.53125	2.96113576041535E-05
2	383	105.002042734895	0.253143310546875	0.253204345703125	1.04095458984375E-06	2.63574207792772E-07	243242.46875	2.97169117402518E-05
2	384	105.102750734641	0.263214111328125	0.26324462890625	1.02874755859375E-06	2.70812250846575E-07	255888.46875	2.98211289191386E-05
2	385	105.203458734387	0.273284912109375	0.2733154296875	1.01776123046875E-06	2.78169835610242E-07	268545.75	2.99241801258177E-05
2	386	105.304166734133	0.283355712890625	0.283355712890625	1.007080078125E-06	2.85361892338187E-07	281363.625	3.00261381198652E-05
2	387	105.404874733878	0.293426513671875	0.293365478515625	9.9822998046875E-07	2.92846209504205E-07	293885.65625	3.01271138596348E-05
2	388	105.505582733624	0.303497314453125	0.303497314453125	9.89685058593751E-07	3.00366764349747E-07	306660.5	3.0227212846512E-05
2	389	105.60629073337	0.313568115234375	0.3135986328125	9.8236083984375E-07	3.08067001242307E-07	319229.59375	3.03265132970409E-05
2	390	105.706998733115	0.323638916015625	0.3236083984375	9.7625732421875E-07	3.15925063887335E-07	331478.59375	3.04251370835118E-05
2	391	105.807706732861	0.333709716796875	0.33380126953125	9.7076416015625E-07	3.24042304100658E-07	343854.125	3.05231769743841E-05
2	392	105.908414732607	0.343780517578125	0.343841552734375	9.6588134765625E-07	3.32110147382991E-07	355987.375	3.0620696634287E-05
2	393	106.009122732353	0.353851318359375	0.3538818359375	9.6221923828125E-07	3.40511917329422E-07	367776.71875	3.07177833747119E-05
2	394	106.109830732098	0.363922119140625	0.3638916015625	9.5855712890625E-07	3.48810857531134E-07	379624.34375	3.08145026792772E-05
2	395	106.210538731844	0.373992919921875	0.37396240234375	9.55810546875E-07	3.57437187403775E-07	391251.625	3.09108982037287E-05
2	396	106.31124673159	0.384063720703125	0.384002685546875	9.539794921875E-07	3.66330681345062E-07	402527.21875	3.10070645355154E-05
2	397	106.411954731336	0.394134521484375	0.394134521484375	9.527587890625E-07	3.75515099904078E-07	413677.15625	3.11030744342133E-05
2	398	106.512662731081	0.404205322265625	0.404205322265625	9.51538085937501E-07	3.84616754445233E-07	424791.53125	3.11989642796107E-05
2	399	106.613370730827	0.414276123046875	0.41424560546875	9.5062255859375E-07	3.93791196984239E-07	435762.46875	3.12947449856438E-05
2	400	106.714078730573	0.424346923828125	0.42431640625	9.5062255859375E-07	4.03364737167067E-07	446356.375	3.13904820359312E-05
2	401	106.814786730319	0.434417724609375	0.434356689453125	9.50012207031251E-07	4.12644141078999E-07	457211.71875	3.14861863444094E-05
2	402	106.915494730064	0.444488525390625	0.444488525390625	9.50012207031251E-07	4.22269522459828E-07	467876.65625	3.15818579110783E-05
2	403	107.01620272981	0.454559326171875	0.45458984375	9.50012207031251E-07	4.31865885275329E-07	478509.5	3.1677533115726E-05
2	404	107.116910729556	0.464630126953125	0.46466064453125	9.50927734375E-07	4.41858674093965E-07	488639.3125	3.17732519761194E-05
2	405	107.217618729302	0.474700927734375	0.47467041015625	9.5184326171875E-07	4.51811814627945E-07	498685.5	3.18690654239617E-05
2	406	107.318326729047	0.484771728515625	0.48480224609375	9.5367431640625E-07	4.62343450635672E-07	508352	3.19650171149988E-05
2	407	107.419034728793	0.494842529296875	0.494842529296875	9.5550537109375E-07	4.72824694952578E-07	517885.65625	3.20611507049762E-05
2	408	107.519742728539	0.504913330078125	0.5048828125	9.58251953125E-07	4.83804910800245E-07	526879	3.21575171255972E-05
2	409	107.620450728284	0.514984130859375	0.51495361328125	9.6038818359375E-07	4.94555365548877E-07	536193.1875	3.22541272907984E-05
2	410	107.72115872803	0.525054931640625	0.525054931640625	9.63134765625E-07	5.05698665165255E-07	545152.0625	3.23509848385584E-05
2	411	107.821866727776	0.535125732421875	0.53509521484375	9.66796875000001E-07	5.17328373916826E-07	553472.25	3.24481625284534E-05
2	412	107.922574727522	0.545196533203125	0.545166015625	9.7076416015625E-07	5.29227634160634E-07	561584.375	3.25457294820808E-05
2	413	108.023282727267	0.555267333984375	0.555267333984375	9.747314453125E-07	5.41236488516006E-07	569661.875	3.26436929753982E-05
2	414	108.123990727013	0.565338134765625	0.5653076171875	9.7930908203125E-07	5.53610902898072E-07	577251.4375	3.27420857502148E-05
2	415	108.224698726759	0.575408935546875	0.5753173828125	9.844970703125E-07	5.66398284718161E-07	584376.9375	3.28409696521703E-05
2	416	108.325406726505	0.585479736328125	0.58544921875	9.906005859375E-07	5.79946345169446E-07	591004.3125	3.29404247167986E-05
2	417	108.42611472625	0.595550537109375	0.5955810546875	9.9761962890625E-07	5.94163338973885E-07	597002.125	3.30405382555909E-05
2	418	108.526822725996	0.605621337890625	0.605621337890625	1.00555419921875E-06	6.08985033068166E-07	602276.1875	3.31414084939752E-05
2	419	108.627530725742	0.615692138671875	0.615753173828125	1.01409912109375E-06	6.2443473325402E-07	607192.3125	3.32431045535486E-05
2	420	108.728238725488	0.625762939453125	0.62579345703125	1.0247802734375E-06	6.4130074406421E-07	610661.125	3.33457719534636E-05
2	421	108.828946725233	0.635833740234375	0.63580322265625	1.0369873046875E-06	6.59319880469411E-07	613125.375	3.34495889546815E-05
2	422	108.929654724979	0.645904541015625	0.645843505859375	1.0504150390625E-06	6.78403694109875E-07	614846.0625	3.3554697438376E-05
2	423	109.030362724725	0.655975341796875	0.655914306640625	1.0650634765625E-06	6.98590326919657E-07	615845.3125	3.36612210958265E-05
2	424	109.131070724471	0.666046142578125	0.66595458984375	1.0809326171875E-06	7.19852039310354E-07	616092.5625	3.37692799803335E-05
2	425	109.231778724216	0.676116943359375	0.676116943359375	1.09619140625E-06	7.41153542094253E-07	616787.3125	3.38789068337064E-05
2	426	109.332486723962	0.686187744140625	0.68609619140625	1.11114501953125E-06	7.62352385663689E-07	617467.75	3.39900543622207E-05
2	427	109.433194723708	0.696258544921875	0.696197509765625	1.124267578125E-06	7.82712277214159E-07	619245.375	3.41026170644909E-05
2	428	109.533902723453	0.706329345703125	0.70623779296875	1.13616943359375E-06	8.02405793365324E-07	621595.5	3.42164385074284E-05
2	429	109.634610723199	0.716400146484375	0.71630859375	1.14654541015625E-06	8.21280309537542E-07	624753.8125	3.43313840858173E-05
2	430	109.735318722945	0.726470947265625	0.726409912109375	1.15692138671875E-06	8.40399138724024E-07	627881.8125	3.44473737641238E-05
2	431	109.836026722691	0.736541748046875	0.73651123046875	1.16851806640625E-06	8.60626641951967E-07	630295.125	3.45644657500088E-05
2	432	109.936734722436	0.746612548828125	0.74652099609375	1.1822509765625E-06	8.8257513652934E-07	631440.375	3.4682838304434E-05
2	433	110.037442722182	0.756683349609375	0.7562255859375	1.19964599609375E-06	9.07203002498136E-07	630373.9375	3.48027751897462E-05
2	434	110.138150721928	0.766754150390625	0.7666015625	1.22283935546875E-06	9.3743051365891E-07	626902.9375	3.4924756619148E-05
2	435	110.238858721674	0.776824951171875	0.7769775390625	1.25244140625E-06	9.73118858382804E-07	620370.375	3.50493974110577E-05
2	436	110.339566721419	0.786895751953125	0.787353515625	1.29241943359375E-06	1.01759098924958E-06	609209	3.51775415765587E-05
2	437	110.440274721165	0.796966552734375	0.7965087890625	1.34246826171875E-06	1.0692876912799E-06	593316.6875	3.53102186636534E-05
2	438	110.540982720911	0.807037353515625	0.806884765625	1.4044189453125E-06	1.13320413674955E-06	574532.8125	3.5448534617899E-05
2	439	110.641690720657	0.817108154296875	0.81756591796875	1.4764404296875E-06	1.20708739359543E-06	553741.25	3.55935990228318E-05
2	440	110.742398720402	0.827178955078125	0.8270263671875	1.55517578125E-06	1.28617125483288E-06	531789.6875	3.57462522515561E-05
2	441	110.843106720148	0.837249755859375	0.83709716796875	1.6326904296875E-06	1.36672053940856E-06	512710.28125	3.59067744284403E-05
2	442	110.943814719894	0.847320556640625	0.84716796875	1.7041015625E-06	1.44366015319974E-06	497134.6875	3.60747944796458E-05
2	443	111.04452271964	0.857391357421875	0.85723876953125	1.76116943359375E-06	1.50974267398851E-06	486744.0625	3.62492864951491E-05
2	444	111.145230719385	0.867462158203125	0.8673095703125	1.80023193359375E-06	1.56135831730353E-06	481776.59375	3.64286170224659E-05
2	445	111.245938719131	0.877532958984375	0.877685546875	1.8206787109375E-06	1.59798332788341E-06	482065.03125	3.66109452443197E-05
2	446	111.346646718877	0.887603759765625	0.88775634765625	1.824951171875E-06	1.62011201609857E-06	486454.84375	3.67945140169468E-05
2	447	111.447354718622	0.897674560546875	0.8978271484375	1.81732177734375E-06	1.63164077093825E-06	494038.625	3.69779190805275E-05
2	448	111.548062718368	0.907745361328125	0.908203125	1.802978515625E-06	1.63747063197661E-06	503723.78125	3.71602145605721E-05
2	449	111.648770718114	0.917816162109375	0.9185791015625	1.7840576171875E-06	1.63879792580701E-06	514882	3.73408365703654E-05
2	450	111.74947871786	0.927886962890625	0.927734375	1.7657470703125E-06	1.63814422649011E-06	525406.1875	3.7519585021073E-05
2	451	111.850186717605	0.937957763671875	0.93841552734375	1.74652099609375E-06	1.63896243066119E-06	537305.625	3.7696441722801E-05
2	452	111.950894717351	0.948028564453125	0.9478759765625	1.7291259765625E-06	1.63899699145986E-06	548182.125	3.78714539692737E-05
2	453	112.051602717097	0.958099365234375	0.95794677734375	1.7144775390625E-06	1.64237826538738E-06	558739.75	3.80448509531561E-05
2	454	112.152310716843	0.968170166015625	0.96832275390625	1.70135498046875E-06	1.64746063546772E-06	569148	3.82168545911554E-05
2	455	112.253018716588	0.978240966796875	0.9783935546875	1.690673828125E-06	1.65414439834422E-06	578700.375	3.83876540581696E-05
2	456	112.353726716334	0.988311767578125	0.98846435546875	1.68212890625E-06	1.6627244576739E-06	587627	3.85574894607998E-05
2	457	112.45443471608	0.998382568359375	0.99822998046875	1.6748046875E-06	1.67184020938294E-06	596027.75	3.87265245080926E-05
2	458	112.555142715826	1.00845336914063	1.00830078125	1.668701171875E-06	1.68255257904093E-06	604242.875	3.88948828913271E-05
2	459	112.655850715571	1.01852416992188	1.01837158203125	1.6632080078125E-06	1.69376369285601E-06	612293.5625	3.90626591979526E-05
2	460	112.756558715317	1.02859497070313	1.02874755859375	1.65740966796875E-06	1.70505609276006E-06	620696	3.92298643419053E-05
2	461	112.857266715063	1.03866577148438	1.0382080078125	1.65252685546875E-06	1.71566659901146E-06	628254.875	3.93965347029734E-05
2	462	112.957974714809	1.04873657226563	1.048583984375	1.646728515625E-06	1.72673310316895E-06	636768	3.95626630051993E-05
2	463	113.058682714554	1.05880737304688	1.0589599609375	1.6412353515625E-06	1.73800242464495E-06	645221.3125	3.972822742071E-05
2	464	113.1593907143	1.06887817382813	1.0687255859375	1.6357421875E-06	1.74815943410067E-06	653358.25	3.98932352254633E-05
2	465	113.260098714046	1.07894897460938	1.0791015625	1.63055419921875E-06	1.75953357484104E-06	661800.5	4.00577046093531E-05
2	466	113.360806713791	1.08901977539063	1.0888671875	1.6259765625E-06	1.77047252236662E-06	669669.6875	4.02216865040828E-05
2	467	113.461514713537	1.09909057617188	1.09893798828125	1.62200927734375E-06	1.78248751581123E-06	677516.5	4.03852354793344E-05
2	468	113.562222713283	1.10916137695313	1.1090087890625	1.61895751953125E-06	1.79543815193028E-06	685014.125	4.05484315706417E-05
2	469	113.662930713029	1.11923217773438	1.119384765625	1.61651611328125E-06	1.8095034874932E-06	692467.4375	4.07113511755597E-05
2	470	113.763638712774	1.12930297851563	1.12945556640625	1.6143798828125E-06	1.82337021215062E-06	699621.9375	4.0874037949834E-05
2	471	113.86434671252	1.13937377929688	1.1395263671875	1.61346435546875E-06	1.83858514901658E-06	706260.6875	4.10365719289985E-05
2	472	113.965054712266	1.14944458007813	1.1492919921875	1.6131591796875E-06	1.85399085239624E-06	712448	4.1199047700502E-05
2	473	114.065762712012	1.15951538085938	1.15966796875	1.61376953125E-06	1.87143689345248E-06	718608.1875	4.13615343859419E-05
2	474	114.166470711757	1.16958618164063	1.16973876953125	1.614990234375E-06	1.88911667464708E-06	724300.875	4.15241156588309E-05
2	475	114.267178711503	1.17965698242188	1.17950439453125	1.61773681640625E-06	1.90812761502457E-06	729107.75	4.16868970205542E-05
2	476	114.367886711249	1.18972778320313	1.18896484375	1.6204833984375E-06	1.92669767784537E-06	733710	4.18499548686668E-05
2	477	114.468594710995	1.19979858398438	1.19964599609375	1.624755859375E-06	1.94913172890665E-06	738354.625	4.20133656007238E-05
2	478	114.56930271074	1.20986938476563	1.209716796875	1.6290283203125E-06	1.97066287910275E-06	742600.25	4.217720561428E-05
2	479	114.670010710486	1.21994018554688	1.21978759765625	1.6351318359375E-06	1.99451346816204E-06	745987.375	4.23415694967844E-05
2	480	114.770718710232	1.23001098632813	1.2298583984375	1.6412353515625E-06	2.01848706637975E-06	749349.25	4.25065481977072E-05
2	481	114.871426709978	1.24008178710938	1.240234375	1.64825439453125E-06	2.04422167371376E-06	752453.25	4.2672185372794E-05
2	482	114.972134709723	1.25015258789063	1.25	1.656494140625E-06	2.07061748369597E-06	754605.75	4.2838593799388E-05
2	483	115.072842709469	1.26022338867188	1.2603759765625	1.6656494140625E-06	2.09934455597249E-06	756687.4375	4.30058753408957E-05
2	484	115.173550709215	1.27029418945313	1.27044677734375	1.67633056640625E-06	2.12968870982877E-06	757873.6875	4.31741573265754E-05
2	485	115.27425870896	1.28036499023438	1.2799072265625	1.68792724609375E-06	2.16039029510284E-06	758271.5625	4.33435634477064E-05
2	486	115.374966708706	1.29043579101563	1.2908935546875	1.7010498046875E-06	2.19587423089251E-06	758880.5625	4.35142101196107E-05
2	487	115.475674708452	1.30050659179688	1.30035400390625	1.715087890625E-06	2.23022129830497E-06	758185.0625	4.36862283095252E-05
2	488	115.576382708198	1.31057739257813	1.3104248046875	1.73065185546875E-06	2.2678889308736E-06	757185.6875	4.38597344327718E-05
2	489	115.677090707943	1.32064819335938	1.32080078125	1.748046875E-06	2.30882164942159E-06	755586.5625	4.40348994743545E-05
2	490	115.777798707689	1.33071899414063	1.33056640625	1.7669677734375E-06	2.35106790569262E-06	753022.4375	4.42118944192771E-05
2	491	115.878506707435	1.34078979492188	1.34063720703125	1.787109375E-06	2.39586529460212E-06	750170.75	4.43908575107343E-05
2	492	115.979214707181	1.35086059570313	1.35101318359375	1.807861328125E-06	2.44244438363239E-06	747299.125	4.45718796981964E-05
2	493	116.079922706926	1.36093139648438	1.361083984375	1.83135986328125E-06	2.49263439400238E-06	743209.5	4.47551283286884E-05
2	494	116.180630706672	1.37100219726563	1.370849609375	1.8572998046875E-06	2.54607857641531E-06	738087.4375	4.49408653366845E-05
2	495	116.281338706418	1.38107299804688	1.38092041015625	1.88507080078125E-06	2.60313277067326E-06	732556.25	4.51293090009131E-05
2	496	116.382046706164	1.39114379882813	1.39068603515625	1.9171142578125E-06	2.66610391008726E-06	725406	4.53207649115939E-05
2	497	116.482754705909	1.40121459960938	1.40106201171875	1.9537353515625E-06	2.73730438493658E-06	717119.625	4.55156769021414E-05
2	498	116.583462705655	1.41128540039063	1.41143798828125	1.99676513671875E-06	2.81831012216571E-06	706862.3125	4.57146015833132E-05
2	499	116.684170705401	1.42135620117188	1.42120361328125	2.047119140625E-06	2.90937305180705E-06	694245.6875	4.59182265331037E-05
2	500	116.784878705147	1.43142700195313	1.43096923828125	2.10540771484375E-06	3.01277373182529E-06	679663.75	4.61273230030201E-05
2	501	116.885586704892	1.44149780273438	1.441650390625	2.1728515625E-06	3.13249233840907E-06	663483.1875	4.63427531940397E-05
2	502	116.986294704638	1.45156860351563	1.45172119140625	2.25006103515625E-06	3.26646136272757E-06	645191.9375	4.65654629806522E-05
2	503	117.087002704384	1.46163940429688	1.4617919921875	2.33795166015625E-06	3.41759891853144E-06	625244.75	4.67964891868178E-05
2	504	117.187710704129	1.47171020507813	1.47186279296875	2.43988037109375E-06	3.59116893378086E-06	603252.0625	4.70370687253308E-05
2	505	117.288418703875	1.48178100585938	1.48162841796875	2.55584716796875E-06	3.78681556867377E-06	579701.5	4.72886240459047E-05
2	506	117.389126703621	1.49185180664063	1.49169921875	2.68890380859375E-06	4.01103579861228E-06	554761.125	4.75527194794267E-05
2	507	117.489834703367	1.50192260742188	1.50146484375	2.835693359375E-06	4.25769394496456E-06	529487.75	4.78309048048686E-05
2	508	117.590542703112	1.49185180664063	1.49169921875	2.49481201171875E-06	3.72150907423929E-06	597920.5	4.80993185192347E-05
2	509	117.691250702858	1.48178100585938	1.48193359375	2.244873046875E-06	3.3267526760028E-06	660141.375	4.83379808429163E-05
2	510	117.791958702604	1.47171020507813	1.4715576171875	2.04803466796875E-06	3.01380077871727E-06	718521.875	4.85541459056549E-05
2	511	117.89266670235	1.46163940429688	1.4617919921875	1.88720703125E-06	2.75870411314827E-06	774579.5625	4.87522993353195E-05
2	512	117.993374702095	1.45156860351563	1.45172119140625	1.754150390625E-06	2.54653718911868E-06	827592.1875	4.89356571051758E-05
2	513	118.094082701841	1.44149780273438	1.441650390625	1.64337158203125E-06	2.36916730500525E-06	877251.625	4.91067366965581E-05
2	514	118.194790701587	1.43142700195313	1.43096923828125	1.55029296875E-06	2.21842151404417E-06	923031.5	4.92675499117468E-05
2	515	118.295498701333	1.42135620117188	1.42059326171875	1.4715576171875E-06	2.09048471333517E-06	965367.125	4.94197120133322E-05
2	516	118.396206701078	1.41128540039063	1.41143798828125	1.40350341796875E-06	1.98095790437947E-06	1005653.4375	4.95644817419816E-05
2	517	118.496914700824	1.40121459960938	1.40106201171875	1.3458251953125E-06	1.88558442459907E-06	1041043.125	4.97029213875066E-05
2	518	118.59762270057	1.39114379882813	1.39129638671875	1.29608154296875E-06	1.80323354470602E-06	1073463.625	4.98359513585456E-05
2	519	118.698330700316	1.38107299804688	1.3812255859375	1.25213623046875E-06	1.72948250565241E-06	1103095.375	4.99642665090505E-05
2	520	118.799038700061	1.37100219726563	1.37115478515625	1.21307373046875E-06	1.66331176387757E-06	1130314.5	5.00883979839273E-05
2	521	118.899746699807	1.36093139648438	1.361083984375	1.17950439453125E-06	1.60540446358937E-06	1153945.75	5.02088732901029E-05
2	522	119.000454699553	1.35086059570313	1.35040283203125	1.1492919921875E-06	1.55200712015358E-06	1174986.75	5.03261398989707E-05
2	523	119.101162699298	1.34078979492188	1.34033203125	1.12213134765625E-06	1.50402843246411E-06	1194452.125	5.04405143146869E-05
2	524	119.201870699044	1.33071899414063	1.33087158203125	1.097412109375E-06	1.46051456795249E-06	1212736.375	5.05522766616195E-05
2	525	119.30257869879	1.32064819335938	1.32080078125	1.0748291015625E-06	1.41963516853139E-06	1228847.25	5.06616561324336E-05
2	526	119.403286698536	1.31057739257813	1.31072998046875	1.0546875E-06	1.38241045988252E-06	1242766.25	5.07688891957514E-05
2	527	119.503994698281	1.30050659179688	1.3006591796875	1.03668212890625E-06	1.3483700058714E-06	1254636.5	5.08741977682803E-05
2	528	119.604702698027	1.29043579101563	1.29058837890625	1.0198974609375E-06	1.3162677987566E-06	1265409.875	5.09777528350241E-05
2	529	119.705410697773	1.28036499023438	1.280517578125	1.0040283203125E-06	1.28567580759409E-06	1275380	5.1079667173326E-05
2	530	119.806118697519	1.27029418945313	1.27044677734375	9.8907470703125E-07	1.25656674754282E-06	1284480.125	5.11800280946773E-05
2	531	119.906826697264	1.26022338867188	1.2603759765625	9.7503662109375E-07	1.22891276532755E-06	1292644.75	5.1278926548548E-05
2	532	120.00753469701	1.25015258789063	1.24969482421875	9.625244140625E-07	1.20286176752415E-06	1298351.375	5.13764935021754E-05
2	533	120.108242696756	1.24008178710938	1.24053955078125	9.4940185546875E-07	1.17777051400481E-06	1306653.875	5.14727653353475E-05
2	534	120.208950696502	1.23001098632813	1.2298583984375	9.368896484375E-07	1.15224156616023E-06	1312703.625	5.15677456860431E-05
2	535	120.309658696247	1.21994018554688	1.21978759765625	9.25598144531251E-07	1.12903308036039E-06	1317837.125	5.16615291417111E-05
2	536	120.410366695993	1.20986938476563	1.209716796875	9.14306640625E-07	1.10605208192283E-06	1323097.5	5.17541775479913E-05
2	537	120.511074695739	1.19979858398438	1.19964599609375	9.0301513671875E-07	1.08329845716071E-06	1328489.375	5.18456872669049E-05
2	538	120.611782695485	1.18972778320313	1.18927001953125	8.92028808593751E-07	1.06086304185737E-06	1333219.375	5.19360728503671E-05
2	539	120.71249069523	1.17965698242188	1.17950439453125	8.8165283203125E-07	1.03991339983622E-06	1337833.25	5.20253852300812E-05
2	540	120.813198694976	1.16958618164063	1.16943359375	8.70666503906251E-07	1.01818659459241E-06	1343147.625	5.21136244060472E-05
2	541	120.913906694722	1.15951538085938	1.1590576171875	8.60595703125E-07	9.97479901343468E-07	1346808.625	5.22007976542227E-05
2	542	121.014614694467	1.14944458007813	1.1492919921875	8.50524902343749E-07	9.77501485976973E-07	1351273.75	5.22869595442899E-05
2	543	121.115322694213	1.13937377929688	1.13922119140625	8.404541015625E-07	9.57463157646998E-07	1355482.875	5.23721064382698E-05
2	544	121.216030693959	1.12930297851563	1.12884521484375	8.2977294921875E-07	9.36685239594226E-07	1360426.625	5.24562092323322E-05
2	545	121.316738693705	1.11923217773438	1.119384765625	8.18786621093751E-07	9.16537260309269E-07	1367126.375	5.25392206327524E-05
2	546	121.41744669345	1.10916137695313	1.109619140625	8.09326171875E-07	8.98043765573675E-07	1371040.75	5.26212024851702E-05
2	547	121.518154693196	1.09909057617188	1.0992431640625	7.9925537109375E-07	8.78575974638807E-07	1375334.125	5.27022020833101E-05
2	548	121.618862692942	1.08901977539063	1.08917236328125	7.88269042968751E-07	8.58560838423728E-07	1381726.75	5.27821393916383E-05
2	549	121.719570692688	1.07894897460938	1.0791015625	7.77282714843749E-07	8.38766993638274E-07	1388300	5.2860974392388E-05
2	550	121.820278692433	1.06887817382813	1.06903076171875	7.659912109375E-07	8.18868159058184E-07	1395617.5	5.29386816197075E-05
2	551	121.920986692179	1.05880737304688	1.0589599609375	7.54394531249999E-07	7.98873600160732E-07	1403721.625	5.30152392457239E-05
2	552	122.021694691925	1.04873657226563	1.048583984375	7.415771484375E-07	7.77605919211055E-07	1413991.75	5.30905672349036E-05
2	553	122.122402691671	1.03866577148438	1.03851318359375	7.2784423828125E-07	7.55875817048945E-07	1426834.375	5.3164560085861E-05
2	554	122.223110691416	1.02859497070313	1.02874755859375	7.1380615234375E-07	7.34326306428557E-07	1441214.25	5.32371523149777E-05
2	555	122.323818691162	1.01852416992188	1.0186767578125	6.99768066406251E-07	7.12837447736092E-07	1455734.875	5.33083330083173E-05
2	556	122.424526690908	1.00845336914063	1.0089111328125	6.84814453125E-07	6.90916920120799E-07	1473262.125	5.33780512341764E-05
2	557	122.525234690654	0.998382568359375	0.99884033203125	6.70471191406249E-07	6.69693690724671E-07	1489758.75	5.34462960786186E-05
2	558	122.625942690399	0.988311767578125	0.9881591796875	6.5643310546875E-07	6.48660375190957E-07	1505346.375	5.35131111973897E-05
2	559	122.726650690145	0.978240966796875	0.97869873046875	6.43005371093749E-07	6.29308544830565E-07	1522069.25	5.35785402462352E-05
2	560	122.827358689891	0.968170166015625	0.968017578125	6.2896728515625E-07	6.08851337347005E-07	1539058.75	5.36425905011129E-05
2	561	122.928066689636	0.958099365234375	0.958251953125	6.1492919921875E-07	5.8925712664859E-07	1558312.625	5.37052255822346E-05
2	562	123.028774689382	0.948028564453125	0.94818115234375	5.999755859375E-07	5.68885525353835E-07	1580366.25	5.37664018338546E-05
2	563	123.129482689128	0.937957763671875	0.9375	5.8349609375E-07	5.47027582342707E-07	1606694.5	5.38259919267148E-05
2	564	123.230190688874	0.927886962890625	0.927734375	5.62438964843751E-07	5.21793992902531E-07	1649484.5	5.38836975465529E-05
2	565	123.330898688619	0.917816162109375	0.91766357421875	5.3741455078125E-07	4.93165771331405E-07	1707552.5	5.39390784979332E-05
2	566	123.431606688365	0.907745361328125	0.9075927734375	5.0628662109375E-07	4.59502047078786E-07	1792646.25	5.39916327397805E-05
2	567	123.532314688111	0.897674560546875	0.8978271484375	4.656982421875E-07	4.18116513856148E-07	1927916.125	5.40405744686723E-05
2	568	123.633022687857	0.887603759765625	0.887451171875	4.150390625E-07	3.68326880106906E-07	2138235.5	5.40849250683095E-05
2	569	123.733730687602	0.877532958984375	0.87799072265625	3.521728515625E-07	3.09204466475421E-07	2493067.75	5.4123556765262E-05
2	570	123.834438687348	0.867462158203125	0.8673095703125	2.76794433593749E-07	2.40066441392628E-07	3133407	5.41552290087566E-05
2	571	123.935146687094	0.857391357421875	0.8575439453125	1.910400390625E-07	1.63825220056424E-07	4488818	5.41787849215325E-05
2	572	124.03585468684	0.847320556640625	0.84716796875	1.01318359374999E-07	8.58336690612305E-08	8361446	5.41935078217648E-05
2	573	124.136562686585	0.837249755859375	0.83770751953125	1.373291015625E-08	1.15041620674106E-08	61000000	5.41992994840257E-05
2	574	124.237270686331	0.827178955078125	0.8270263671875	-6.31713867187495E-08	-5.22443990291777E-08	-13091788	5.41968111065216E-05
2	575	124.337978686077	0.817108154296875	0.81756591796875	-1.22985839843751E-07	-1.00549030435104E-07	-6647643	5.41874360351358E-05
2	576	124.438686685823	0.807037353515625	0.80718994140625	-1.6204833984375E-07	-1.30803783804367E-07	-4981167.5	5.41730842087418E-05
2	577	124.539394685568	0.796966552734375	0.797119140625	-1.82495117187501E-07	-1.45470352208577E-07	-4367893	5.41557346878108E-05
2	578	124.640102685314	0.786895751953125	0.78704833984375	-1.87072753906251E-07	-1.4723529773164E-07	-4207178	5.41371264262125E-05
2	579	124.74081068506	0.776824951171875	0.77667236328125	-1.800537109375E-07	-1.39842740054519E-07	-4313559.5	5.41186382179148E-05
2	580	124.841518684805	0.766754150390625	0.76690673828125	-1.6632080078125E-07	-1.27552539197495E-07	-4611009	5.41011977475137E-05
2	581	124.942226684551	0.756683349609375	0.7568359375	-1.483154296875E-07	-1.1225044005414E-07	-5102881	5.40853543498088E-05
2	582	125.042934684297	0.746612548828125	0.746551513671875	-1.2939453125E-07	-9.65996775903477E-08	-5769576	5.40713699592743E-05
2	583	125.143642684043	0.736541748046875	0.7364501953125	-1.10778808593751E-07	-8.15830745182211E-08	-6647934	5.40592773177195E-05
2	584	125.244350683788	0.726470947265625	0.726409912109375	-9.39941406250006E-08	-6.8278275477951E-08	-7728247	5.40489672857802E-05
2	585	125.345058683534	0.716400146484375	0.71636962890625	-7.99560546874995E-08	-5.72780862739819E-08	-8959542	5.40402070328128E-05
2	586	125.44576668328	0.706329345703125	0.706207275390625	-6.89697265624997E-08	-4.87069229393455E-08	-10239381	5.40327091584913E-05
2	587	125.546474683026	0.696258544921875	0.696197509765625	-6.28662109374997E-08	-4.37672973419012E-08	-11074273	5.40260698471684E-05
2	588	125.647182682771	0.686187744140625	0.6861572265625	-5.950927734375E-08	-4.08327203160752E-08	-11530257	5.40199071110692E-05
2	589	125.747890682517	0.676116943359375	0.6761474609375	-5.79833984375E-08	-3.92053252085134E-08	-11661053	5.40139917575289E-05
2	590	125.848598682263	0.666046142578125	0.665924072265625	-5.58471679687506E-08	-3.71899737672265E-08	-11924044	5.40082583029289E-05
2	591	125.949306682009	0.655975341796875	0.655975341796875	-5.37109374999997E-08	-3.52330502551013E-08	-12213069	5.40027431270573E-05
2	592	126.050014681754	0.645904541015625	0.6458740234375	-4.76074218749997E-08	-3.07483958295052E-08	-13566667	5.39976426807698E-05
2	593	126.1507226815	0.635833740234375	0.635772705078125	-4.02832031249994E-08	-2.56109586871389E-08	-15782577	5.39932152605616E-05
2	594	126.251430681246	0.625762939453125	0.625732421875	-3.14331054687506E-08	-1.96687111042593E-08	-19906798	5.39896027476061E-05
2	595	126.352138680992	0.615692138671875	0.61566162109375	-2.19726562499994E-08	-1.35277202772954E-08	-28019446	5.39869142812677E-05
2	596	126.452846680737	0.605621337890625	0.605621337890625	-1.25122070312497E-08	-7.57765938885768E-09	-48402440	5.39851789653767E-05
2	597	126.553554680483	0.595550537109375	0.59552001953125	-3.66210937499945E-09	-2.18085949299507E-09	-162616672	5.39843640581239E-05
2	598	126.654262680229	0.585479736328125	0.585418701171875	4.88281249999972E-09	2.85848966719016E-09	119893752	5.39844259037636E-05
2	599	126.754970679974	0.575408935546875	0.57537841796875	1.31225585937506E-08	7.55043672029387E-09	43846512	5.39853317604866E-05
2	600	126.85567867972	0.565338134765625	0.5653076171875	2.01416015624997E-08	1.13862004269549E-08	28066668	5.39870088687167E-05
2	601	126.956386679466	0.555267333984375	0.55523681640625	2.71606445312503E-08	1.50805892218386E-08	20442698	5.39893881068565E-05
2	602	127.057094679212	0.545196533203125	0.545196533203125	3.32641601562503E-08	1.8135503765393E-08	16389909	5.3992433095118E-05
2	603	127.157802678957	0.535125732421875	0.535125732421875	3.87573242187494E-08	2.07400407958858E-08	13807087	5.39960565220099E-05
2	604	127.258510678703	0.525054931640625	0.5250244140625	4.39453125000003E-08	2.30723617988815E-08	11947222	5.4000222007744E-05
2	605	127.359218678449	0.514984130859375	0.5150146484375	4.82177734375006E-08	2.48328575480627E-08	10681013	5.40048640687019E-05
2	606	127.459926678195	0.504913330078125	0.504913330078125	5.24902343749994E-08	2.65030184465331E-08	9619186	5.40099354111589E-05
2	607	127.56063467794	0.494842529296875	0.49481201171875	5.61523437500003E-08	2.77848535290559E-08	8811957	5.40154069312848E-05
2	608	127.661342677686	0.484771728515625	0.484710693359375	5.98144531249997E-08	2.89927051255745E-08	8103571.5	5.40212458872702E-05
2	609	127.762050677432	0.474700927734375	0.47467041015625	6.256103515625E-08	2.96958724277374E-08	7587317	5.40274049853906E-05
2	610	127.862758677178	0.464630126953125	0.464691162109375	6.53076171875003E-08	3.03478735474982E-08	7115420.5	5.40338442078792E-05
2	611	127.963466676923	0.454559326171875	0.454559326171875	6.77490234374994E-08	3.07959489020959E-08	6709459.5	5.40405453648418E-05
2	612	128.064174676669	0.444488525390625	0.44451904296875	6.98852539062503E-08	3.10653263113636E-08	6360699	5.40474757144693E-05
2	613	128.164882676415	0.434417724609375	0.4344482421875	7.171630859375E-08	3.11570254041271E-08	6057872.5	5.40546061529312E-05
2	614	128.265590676161	0.424346923828125	0.42437744140625	7.26318359375006E-08	3.082331190285E-08	5842857	5.40618748345878E-05
2	615	128.366298675906	0.414276123046875	0.414306640625	7.32421875E-08	3.03447222904651E-08	5656667	5.40692199137993E-05
2	616	128.467006675652	0.404205322265625	0.404266357421875	7.44628906250003E-08	3.01028393323577E-08	5429098.5	5.4076655942481E-05
2	617	128.567714675398	0.394134521484375	0.3941650390625	7.50732421874997E-08	2.95912467862536E-08	5250407	5.40841865586117E-05
2	618	128.668422675143	0.384063720703125	0.384033203125	7.56835937500006E-08	2.90650135070791E-08	5074193.5	5.40917790203821E-05
2	619	128.769130674889	0.373992919921875	0.373931884765625	7.62939453125E-08	2.85287384826916E-08	4901200	5.40994296898134E-05
2	620	128.869838674635	0.363922119140625	0.363922119140625	7.75146484375003E-08	2.82092944559054E-08	4694882	5.41071749466937E-05
2	621	128.970546674381	0.353851318359375	0.35382080078125	7.81249999999997E-08	2.76422493783457E-08	4528906.5	5.41150111530442E-05
2	622	129.071254674126	0.343780517578125	0.34381103515625	7.90405273437503E-08	2.71750053570941E-08	4349807	5.41229273949284E-05
2	623	129.171962673872	0.333709716796875	0.333740234375	7.96508789062497E-08	2.65827022616349E-08	4190038.5	5.41309163963888E-05
2	624	129.272670673618	0.323638916015625	0.32366943359375	7.99560546874995E-08	2.58793306784355E-08	4048091.75	5.41389526915736E-05
2	625	129.373378673364	0.313568115234375	0.313568115234375	8.02612304687506E-08	2.51673633044902E-08	3906844	5.41470217285678E-05
2	626	129.474086673109	0.303497314453125	0.303497314453125	8.02612304687506E-08	2.43590676518579E-08	3781368.75	5.41551053174771E-05
2	627	129.574794672855	0.293426513671875	0.29339599609375	8.02612304687506E-08	2.35483241795009E-08	3655513.25	5.41631889063865E-05
2	628	129.675502672601	0.283355712890625	0.283355712890625	7.90405273437503E-08	2.23965841428253E-08	3584942.25	5.41712106496561E-05
2	629	129.776210672347	0.273284912109375	0.273284912109375	7.87353515625006E-08	2.15171827022687E-08	3470930.5	5.4179152357392E-05
2	630	129.876918672092	0.263214111328125	0.263214111328125	7.72094726562506E-08	2.03226218076225E-08	3409091	5.41870067536365E-05
2	631	129.977626671838	0.253143310546875	0.253143310546875	7.62939453125E-08	1.93133011805457E-08	3318000	5.41947374586016E-05
2	632	130.078334671584	0.243072509765625	0.243011474609375	7.41577148437506E-08	1.80211738864955E-08	3276955	5.4202311730478E-05
2	633	130.17904267133	0.233001708984375	0.233001708984375	7.26318359375006E-08	1.69233409508251E-08	3207983.25	5.4209704103414E-05
2	634	130.279750671075	0.222930908203125	0.222930908203125	6.95800781250006E-08	1.55115493782887E-08	3203947.5	5.42168636457063E-05
2	635	130.380458670821	0.212860107421875	0.212890625	6.68334960937503E-08	1.42282239323777E-08	3185388.25	5.42237321496941E-05
2	636	130.481166670567	0.202789306640625	0.202850341796875	6.34765625000006E-08	1.28762422946238E-08	3195673	5.42302950634621E-05
2	637	130.581874670312	0.192718505859375	0.1927490234375	5.88989257812506E-08	1.13527098832833E-08	3272539	5.42364577995613E-05
2	638	130.682582670058	0.182647705078125	0.1826171875	5.46264648437503E-08	9.9757313520854E-09	3343016.75	5.42421730642673E-05
2	639	130.783290669804	0.172576904296875	0.17266845703125	4.82177734375006E-08	8.32568858299965E-09	3581012.75	5.42473535460886E-05
2	640	130.88399866955	0.162506103515625	0.162506103515625	4.05883789062506E-08	6.5958594142046E-09	4003759.5	5.42518246220425E-05
2	641	130.984706669295	0.152435302734375	0.1524658203125	3.11279296874994E-08	4.74594497035241E-09	4898039.5	5.42554334970191E-05
2	642	131.085414669041	0.142364501953125	0.14239501953125	1.8310546875E-08	2.60733057366735E-09	7776667	5.4257925512502E-05
2	643	131.186122668787	0.132293701171875	0.13238525390625	1.52587890625E-09	2.0200385808522E-10	86760000	5.42589223186951E-05
2	644	131.286830668533	0.122222900390625	0.12225341796875	-2.04467773437494E-08	-2.49968823418101E-09	-5979104.5	5.42579691682477E-05
2	645	131.387538668278	0.112152099609375	0.112152099609375	-5.09643554687494E-08	-5.71575897723164E-09	-2200599	5.42543748451862E-05
2	646	131.488246668024	0.102081298828125	0.10211181640625	-9.18579101562497E-08	-9.37977784332134E-09	-1111628	5.42471825610846E-05
2	647	131.58895466777	0.092010498046875	0.092010498046875	-1.47705078125E-07	-1.35904176801205E-08	-622933.875	5.42351190233603E-05
2	648	131.689662667516	0.081939697265625	0.08197021484375	-2.239990234375E-07	-1.83612485216145E-08	-365940.0625	5.42164016223978E-05
2	649	131.790370667261	0.071868896484375	0.071990966796875	-3.27453613281251E-07	-2.35737012133086E-08	-219850.90625	5.41886365681421E-05
2	650	131.891078667007	0.061798095703125	0.06182861328125	-4.6112060546875E-07	-2.85104473363162E-08	-134083.390625	5.41489280294627E-05
2	651	131.991786666753	0.051727294921875	0.051727294921875	-6.31103515625001E-07	-3.2645274927745E-08	-81963.25	5.40939290658571E-05
2	652	132.092494666499	0.041656494140625	0.0417510986328125	-8.35571289062501E-07	-3.48860176302423E-08	-49967.12890625	5.40200780960731E-05
2	653	132.193202666244	0.031585693359375	0.03165283203125	-1.06781005859375E-06	-3.37992069887605E-08	-29642.755859375	5.39242355444003E-05
2	654	132.29391066599	0.021514892578125	0.0216156005859375	-1.312255859375E-06	-2.83651964139153E-08	-16472.09375	5.38043896085583E-05
2	655	132.394618665736	0.011444091796875	0.0115692138671875	-1.5472412109375E-06	-1.79003638578479E-08	-7477.31787109375	5.36604020453524E-05
2	656	132.495326665481	0.001373291015625	0.0014678955078125	-1.749267578125E-06	-2.56774179696606E-09	-839.148620605469	5.34944083483424E-05
2	657	132.596034665227	-0.008697509765625	-0.00855712890625	-1.898193359375E-06	1.62430850991768E-08	4508.03857421875	5.33107449882664E-05
2	658	132.696742664973	-0.018768310546875	-0.0186279296875	-1.98638916015625E-06	3.70023194307123E-08	9377.78515625	5.31151381437667E-05
2	659	132.797450664719	-0.028839111328125	-0.028704833984375	-2.01568603515625E-06	5.78599319567275E-08	14240.7265625	5.29136195837054E-05
2	660	132.898158664464	-0.038909912109375	-0.03876953125	-1.99859619140625E-06	7.74846355966474E-08	19398.380859375	5.2711482567247E-05
2	661	132.99886666421	-0.048980712890625	-0.048828125	-1.94915771484375E-06	9.51737106902328E-08	25050.884765625	5.25126997672487E-05
2	662	133.099574663956	-0.059051513671875	-0.0589599609375	-1.88323974609375E-06	1.11035738825649E-07	31307.73046875	5.23197231814265E-05
2	663	133.200282663702	-0.069122314453125	-0.069061279296875	-1.80999755859375E-06	1.25000738648851E-07	38155.45703125	5.21337533427868E-05
2	664	133.300990663447	-0.079193115234375	-0.079132080078125	-1.73828125E-06	1.37553811896396E-07	45523.17578125	5.19550849276129E-05
2	665	133.401698663193	-0.089263916015625	-0.089202880859375	-1.671142578125E-06	1.49070729094092E-07	53378.37890625	5.17834050697275E-05
2	666	133.502406662939	-0.099334716796875	-0.0992431640625	-1.6107177734375E-06	1.59852717729336E-07	61614.25	5.16181498824153E-05
2	667	133.603114662685	-0.109405517578125	-0.109283447265625	-1.55731201171875E-06	1.7018841447225E-07	70174.40625	5.14586281497031E-05
2	668	133.70382266243	-0.119476318359375	-0.119354248046875	-1.51092529296875E-06	1.80335348431981E-07	78994.1484375	5.13041304657236E-05
2	669	133.804530662176	-0.129547119140625	-0.129486083984375	-1.47216796875E-06	1.90625257801003E-07	87956.0546875	5.11539183207788E-05
2	670	133.905238661922	-0.139617919921875	-0.1395263671875	-1.43951416015625E-06	2.00850180931411E-07	96926.015625	5.10073041368742E-05
2	671	134.005946661668	-0.149688720703125	-0.149627685546875	-1.412353515625E-06	2.11327190413613E-07	105942.09375	5.08637021994218E-05
2	672	134.106654661413	-0.159759521484375	-0.15966796875	-1.3897705078125E-06	2.21901828467708E-07	114888.015625	5.07226031913888E-05
2	673	134.207362661159	-0.169830322265625	-0.169677734375	-1.3714599609375E-06	2.32706213409983E-07	123720.5234375	5.05835632793605E-05
2	674	134.308070660905	-0.179901123046875	-0.179779052734375	-1.357421875E-06	2.44036016283644E-07	132441.546875	5.04461531818379E-05
2	675	134.40877866065	-0.189971923828125	-0.189788818359375	-1.34674072265625E-06	2.55596319220786E-07	140924.546875	5.03099872730672E-05
2	676	134.509486660396	-0.200042724609375	-0.199859619140625	-1.34002685546875E-06	2.67817256371927E-07	149145.984375	5.01746981171891E-05
2	677	134.610194660142	-0.189971923828125	-0.1898193359375	-1.17523193359375E-06	2.23081741523856E-07	161516.5	5.0048045522999E-05
