Potential - Start -0.2 V, Upper Vertex 1.5 V, Lower Vertex -0.2 V, Stop -0.19 V; Scan - # end cross 5, Rate 0.1 Vps, Step 0.01 V 
Scan	Index	Time (s)	Potential applied (V)	WE(1).Potential (V)	WE(1).Current (A)	WE(1).Power (W)	WE(1).Resistance (Ω)	WE(1).Charge (C)
1	1	65.841566833766	-0.189971923828125	-0.1898193359375	-1.9256591796875E-07	3.65527341728011E-08	985737	0
1	2	65.9422748335118	-0.179901123046875	-0.179779052734375	-1.5838623046875E-07	2.84745258483099E-08	1135067.5	-1.76718444322432E-08
1	3	66.0429828332575	-0.169830322265625	-0.169677734375	-1.3153076171875E-07	2.23178400204915E-08	1290023.25	-3.22703250787981E-08
1	4	66.1436908330032	-0.159759521484375	-0.159637451171875	-1.0833740234375E-07	1.72947061116702E-08	1473521.125	-4.43486456447317E-08
1	5	66.244398832749	-0.149688720703125	-0.1495361328125	-8.66699218750003E-08	1.29602844012311E-08	1725352.125	-5.41680442722736E-08
1	6	66.3451068324947	-0.139617919921875	-0.139556884765625	-6.68334960937503E-08	9.32707422407475E-09	2088128	-6.18975519728338E-08
1	7	66.4458148322404	-0.129547119140625	-0.1295166015625	-4.76074218749997E-08	6.16595130509268E-09	2720512.75	-6.7660110403267E-08
1	8	66.5465228319862	-0.119476318359375	-0.119415283203125	-2.71606445312503E-08	3.24339599622192E-09	4396629.5	-7.14249850375381E-08
1	9	66.6472308317319	-0.109405517578125	-0.109344482421875	-5.79833984375028E-09	6.34016450451469E-10	18857896	-7.3084599705453E-08
1	10	66.7479388314777	-0.099334716796875	-0.099273681640625	1.983642578125E-08	-1.96923499728996E-09	-5004615.5	-7.23777233702094E-08
1	11	66.8486468312234	-0.089263916015625	-0.08917236328125	4.97436523437506E-08	-4.43575887132397E-09	-1792638.125	-6.88740939835952E-08
1	12	66.9493548309691	-0.079193115234375	-0.0791015625	8.72802734374997E-08	-6.9040058114922E-09	-906293.75	-6.19743900642789E-08
1	13	67.0500628307149	-0.069122314453125	-0.06903076171875	1.3702392578125E-07	-9.45886569070353E-09	-503786.21875	-5.06797768196066E-08
1	14	67.1507708304606	-0.059051513671875	-0.059051513671875	2.02026367187499E-07	-1.19299619072422E-08	-292296.09375	-3.36072396578402E-08
1	15	67.2514788302063	-0.048980712890625	-0.0488494873046875	2.886962890625E-07	-1.41026639255415E-08	-169207.1875	-8.89739126819222E-09
1	16	67.3521868299521	-0.038909912109375	-0.038775634765625	4.03747558593751E-07	-1.56555675090431E-08	-96039.3046875	2.59699248772449E-08
1	17	67.4528948296978	-0.028839111328125	-0.02869873046875	5.52978515624999E-07	-1.586978193302E-08	-51898.45703125	7.4144907102891E-08
1	18	67.5536028294435	-0.018768310546875	-0.0186737060546875	7.37609863281249E-07	-1.377391001256E-08	-25316.509765625	1.39131202558929E-07
1	19	67.6543108291893	-0.008697509765625	-0.00859985351562501	9.54589843750001E-07	-8.20933276912683E-09	-9008.951171875	2.24340226395725E-07
1	20	67.755018828935	0.001373291015625	0.0014801025390625	1.192626953125E-06	1.76521008921071E-09	1241.04406738281	3.32461183916166E-07
1	21	67.8557268286808	0.011444091796875	0.01156005859375	1.4324951171875E-06	1.65597260348704E-08	8069.87646484375	4.64646575437655E-07
1	22	67.9564348284265	0.021514892578125	0.0216156005859375	1.6497802734375E-06	3.56609888285675E-08	13102.109375	6.19851448391273E-07
1	23	68.0571428281722	0.031585693359375	0.0316802978515625	1.8231201171875E-06	5.77569849724568E-08	17376.966796875	7.94725849573297E-07
1	24	68.157850827918	0.041656494140625	0.0417510986328125	1.93878173828125E-06	8.09462648021508E-08	21534.708984375	9.84152620731038E-07
1	25	68.2585588276637	0.051727294921875	0.0517578125	1.99462890625E-06	1.0323761756581E-07	25948.59375	1.18221566935972E-06
1	26	68.3592668274094	0.061798095703125	0.06182861328125	1.99951171875E-06	1.23627032166951E-07	30921.857421875	1.3833365528626E-06
1	27	68.4599748271552	0.071868896484375	0.071929931640625	1.96685791015625E-06	1.41475950954373E-07	36570.98828125	1.58305908826151E-06
1	28	68.5606828269009	0.081939697265625	0.081939697265625	1.91192626953125E-06	1.56662650852013E-07	42857.14453125	1.77837137016468E-06
1	29	68.6613908266467	0.092010498046875	0.092041015625	1.8450927734375E-06	1.69824204476754E-07	49884.22265625	1.96755240722268E-06
1	30	68.7620988263924	0.102081298828125	0.10211181640625	1.77459716796875E-06	1.81207326477306E-07	57540.84375	2.14981810131576E-06
1	31	68.8628068261381	0.112152099609375	0.1121826171875	1.70623779296875E-06	1.91410222782906E-07	65748.5234375	2.32509205488896E-06
1	32	68.9635148258839	0.122222900390625	0.122283935546875	1.6424560546875E-06	2.0084598872927E-07	74451.875	2.49371237259766E-06
1	33	69.0642228256296	0.132293701171875	0.13226318359375	1.58416748046875E-06	2.09527030392564E-07	83490.65625	2.65618564299075E-06
1	34	69.1649308253753	0.142364501953125	0.14239501953125	1.53106689453125E-06	2.18016282360622E-07	93003.7890625	2.81305028693168E-06
1	35	69.2656388251211	0.152435302734375	0.1524658203125	1.48345947265625E-06	2.26176851469972E-07	102777.2109375	2.96484358841553E-06
1	36	69.3663468248668	0.162506103515625	0.162506103515625	1.4410400390625E-06	2.34177804259161E-07	112770.015625	3.11210396830575E-06
1	37	69.4670548246125	0.172576904296875	0.172607421875	1.40350341796875E-06	2.42255083549026E-07	122983.265625	3.25533801515121E-06
1	38	69.5677628243583	0.182647705078125	0.182586669921875	1.36993408203125E-06	2.50131677148602E-07	133281.359375	3.39499160872947E-06
1	39	69.668470824104	0.192718505859375	0.1927490234375	1.3397216796875E-06	2.58230045346863E-07	143872.4375	3.53143377651577E-06
1	40	69.7691788238498	0.202789306640625	0.202789306640625	1.3134765625E-06	2.66358995304472E-07	154391.265625	3.66503286386433E-06
1	41	69.8698868235955	0.212860107421875	0.212921142578125	1.28936767578125E-06	2.74533647370845E-07	165136.09375	3.79609650735802E-06
1	42	69.9705948233412	0.222930908203125	0.222900390625	1.2677001953125E-06	2.82570880472122E-07	175830.515625	3.92485526390374E-06
1	43	70.071302823087	0.233001708984375	0.23297119140625	1.2481689453125E-06	2.90787397716485E-07	186650.375	4.05153923566104E-06
1	44	70.1720108228327	0.243072509765625	0.243072509765625	1.2310791015625E-06	2.99241492029978E-07	197446.703125	4.1763792069105E-06
1	45	70.2727188225784	0.253143310546875	0.25311279296875	1.2152099609375E-06	3.07585196424043E-07	208287.296875	4.29955980507657E-06
1	46	70.3734268223242	0.263214111328125	0.263153076171875	1.201171875E-06	3.16092069851948E-07	219080.296875	4.42123428001651E-06
1	47	70.4741348220699	0.273284912109375	0.27325439453125	1.18804931640625E-06	3.24639700011176E-07	230002.578125	4.54154087492498E-06
1	48	70.5748428218157	0.283355712890625	0.2833251953125	1.17645263671875E-06	3.33318666889681E-07	240830.09375	4.66060328108142E-06
1	49	70.6755508215614	0.293426513671875	0.293365478515625	1.165771484375E-06	3.41997093755708E-07	251649.21875	4.77854337077588E-06
1	50	70.7762588213071	0.303497314453125	0.303466796875	1.1566162109375E-06	3.5099461115351E-07	262374.65625	4.89548483528779E-06
1	51	70.8769668210529	0.313568115234375	0.3135986328125	1.148681640625E-06	3.60224959194966E-07	273007.46875	5.01156591781182E-06
1	52	70.9776748207986	0.323638916015625	0.323638916015625	1.141357421875E-06	3.69387663567977E-07	283556.15625	5.12687847731286E-06
1	53	71.0783828205443	0.333709716796875	0.333709716796875	1.1346435546875E-06	3.78641573206551E-07	294109.75	5.24148435943061E-06
1	54	71.1790908202901	0.343780517578125	0.343780517578125	1.12884521484375E-06	3.88074965940177E-07	304541.78125	5.35545996172004E-06
1	55	71.2797988200358	0.353851318359375	0.3538818359375	1.1248779296875E-06	3.9807386542634E-07	314595.75	5.46894398212316E-06
1	56	71.3805068197815	0.363922119140625	0.363922119140625	1.12152099609375E-06	4.081462918748E-07	324489.78125	5.58205920242472E-06
1	57	71.4812148195273	0.373992919921875	0.373992919921875	1.11846923828125E-06	4.1829954966488E-07	334379.28125	5.69485155210714E-06
1	58	71.581922819273	0.384063720703125	0.384063720703125	1.11663818359375E-06	4.28860204237935E-07	343946.4375	5.80739833822008E-06
1	59	71.6826308190188	0.394134521484375	0.39410400390625	1.11541748046875E-06	4.39590507994581E-07	353324.21875	5.91979096498108E-06
1	60	71.7833388187645	0.404205322265625	0.404205322265625	1.11541748046875E-06	4.50857697842366E-07	362380.3125	6.03212265559705E-06
1	61	71.8840468185102	0.414276123046875	0.41424560546875	1.1151123046875E-06	4.61930341089101E-07	371483.3125	6.14443888480309E-06
1	62	71.984754818256	0.424346923828125	0.424285888671875	1.11572265625E-06	4.73385370014512E-07	380279	6.25677012067172E-06
1	63	72.0854628180017	0.434417724609375	0.434356689453125	1.11663818359375E-06	4.85019256757369E-07	388986.0625	6.36917820884264E-06
1	64	72.1861708177474	0.444488525390625	0.444580078125	1.11724853515625E-06	4.96706434205407E-07	397924.0625	6.48166360406321E-06
1	65	72.2868788174932	0.454559326171875	0.454559326171875	1.11907958984375E-06	5.08688060563145E-07	406190.34375	6.59427178106853E-06
1	66	72.3875868172389	0.464630126953125	0.464599609375	1.1212158203125E-06	5.20916387358739E-07	414371.28125	6.70707959216088E-06
1	67	72.4882948169846	0.474700927734375	0.474761962890625	1.1236572265625E-06	5.33469687979959E-07	422514.96875	6.82011796016013E-06
1	68	72.5890028167304	0.484771728515625	0.484710693359375	1.12701416015625E-06	5.46275771284854E-07	430083.96875	6.93344827595865E-06
1	69	72.6897108164761	0.494842529296875	0.49481201171875	1.13067626953125E-06	5.59472141503647E-07	437624.875	7.04713193044881E-06
1	70	72.7904188162219	0.504913330078125	0.504852294921875	1.13525390625E-06	5.73135537251801E-07	444704.3125	7.16123031452298E-06
1	71	72.8911268159676	0.514984130859375	0.5150146484375	1.1395263671875E-06	5.86872772601055E-07	451955	7.27577480574837E-06
1	72	72.9918348157133	0.525054931640625	0.5250244140625	1.14471435546875E-06	6.01002966504893E-07	458651.03125	7.39079541745014E-06
1	73	73.0925428154591	0.535125732421875	0.53515625	1.14959716796875E-06	6.15214048593771E-07	465516.34375	7.50632307244814E-06
1	74	73.1932508152048	0.545196533203125	0.54510498046875	1.15509033203125E-06	6.29645512617572E-07	471915.46875	7.62237323215231E-06
1	75	73.2939588149505	0.555267333984375	0.555206298828125	1.160888671875E-06	6.44532633486961E-07	478259.75	7.73899228079244E-06
1	76	73.3946668146963	0.565338134765625	0.56536865234375	1.16668701171875E-06	6.59608247133292E-07	484593.28125	7.85619522503112E-06
1	77	73.495374814442	0.575408935546875	0.57537841796875	1.173095703125E-06	6.7497393274607E-07	490478.65625	7.97401207819348E-06
1	78	73.5960828141878	0.585479736328125	0.585418701171875	1.17919921875E-06	6.90325293817295E-07	496454.4375	8.09246012067888E-06
1	79	73.6967908139335	0.595550537109375	0.595489501953125	1.18499755859375E-06	7.05653576460463E-07	502523.84375	8.21150661067804E-06
1	80	73.7974988136792	0.605621337890625	0.605560302734375	1.19140625E-06	7.21468325082242E-07	508273.5625	8.33116791909561E-06
1	81	73.898206813425	0.615692138671875	0.61566162109375	1.197509765625E-06	7.37260791083827E-07	514118.25	8.4514595073415E-06
1	82	73.9989148131707	0.625762939453125	0.625762939453125	1.20361328125E-06	7.53176550460921E-07	519903.65625	8.57236591400579E-06
1	83	74.0996228129164	0.635833740234375	0.63580322265625	1.2091064453125E-06	7.68753693591862E-07	525845.5625	8.69385530677391E-06
1	84	74.2003308126622	0.645904541015625	0.645904541015625	1.21490478515625E-06	7.84712483437033E-07	531650.375	8.81591404322535E-06
1	85	74.3010388124079	0.655975341796875	0.6558837890625	1.21978759765625E-06	8.00038890247379E-07	537703.3125	8.93851120054023E-06
1	86	74.4017468121536	0.666046142578125	0.66595458984375	1.22467041015625E-06	8.15574878743064E-07	543782.6875	9.06159948499408E-06
1	87	74.5024548118994	0.676116943359375	0.67608642578125	1.2298583984375E-06	8.31490581276739E-07	549727.0625	9.18519435799681E-06
1	88	74.6031628116451	0.686187744140625	0.6861572265625	1.234130859375E-06	8.46807836296648E-07	555984.1875	9.30926580622327E-06
1	89	74.7038708113909	0.696258544921875	0.69610595703125	1.23870849609375E-06	8.62272372614825E-07	561961.0625	9.4337838163483E-06
1	90	74.8045788111366	0.706329345703125	0.70623779296875	1.24237060546875E-06	8.77409036093013E-07	568459.875	9.55871564656263E-06
1	91	74.9052868108823	0.716400146484375	0.716339111328125	1.246337890625E-06	8.92800585461373E-07	574755.125	9.68403219303582E-06
1	92	75.0059948106281	0.726470947265625	0.726348876953125	1.25030517578125E-06	9.08157687717903E-07	580937.3125	9.80974800768308E-06
1	93	75.1067028103738	0.736541748046875	0.7364501953125	1.2542724609375E-06	9.23709194466937E-07	587153.3125	9.93586399999913E-06
1	94	75.2074108101195	0.746612548828125	0.746551513671875	1.2579345703125E-06	9.39112908326933E-07	593474.0625	1.00623628895846E-05
1	95	75.3081188098653	0.756683349609375	0.7568359375	1.26190185546875E-06	9.55052655626787E-07	599758.1875	1.01892474049237E-05
1	96	75.408826809611	0.766754150390625	0.76690673828125	1.265869140625E-06	9.70803512245766E-07	605834.1875	1.03165302789421E-05
1	97	75.5095348093568	0.776824951171875	0.77728271484375	1.270751953125E-06	9.87733528745594E-07	611671.5	1.04442597148591E-05
1	98	75.6102428091025	0.786895751953125	0.7867431640625	1.27532958984375E-06	1.00335682873265E-06	616894.0625	1.05724648165051E-05
1	99	75.7109508088482	0.796966552734375	0.79742431640625	1.28021240234375E-06	1.02087244613358E-06	622884.4375	1.07011464933748E-05
1	100	75.811658808594	0.807037353515625	0.806884765625	1.28631591796875E-06	1.03790864613984E-06	627283.5625	1.0830382052518E-05
1	101	75.9123668083397	0.817108154296875	0.81695556640625	1.29180908203125E-06	1.05535059446993E-06	632412	1.09602005977649E-05
1	102	76.0130748080854	0.827178955078125	0.82733154296875	1.29791259765625E-06	1.07380401459523E-06	637432.375	1.10906030386104E-05
1	103	76.1137828078312	0.837249755859375	0.83740234375	1.30462646484375E-06	1.09249720026128E-06	641871.375	1.12216512206942E-05
1	104	76.2144908075769	0.847320556640625	0.84686279296875	1.31134033203125E-06	1.11052531792666E-06	645799.4375	1.13533760668361E-05
1	105	76.3151988073226	0.857391357421875	0.8575439453125	1.3189697265625E-06	1.13107444121852E-06	650162	1.14858230517711E-05
1	106	76.4159068070684	0.867462158203125	0.86761474609375	1.32598876953125E-06	1.15044736048731E-06	654315.3125	1.16190067274147E-05
1	107	76.5166148068141	0.877532958984375	0.8770751953125	1.33392333984375E-06	1.16995101961948E-06	657515.5	1.1752944374166E-05
1	108	76.6173228065599	0.887603759765625	0.887451171875	1.341552734375E-06	1.1905624432984E-06	661510.5	1.18876650958555E-05
1	109	76.7180308063056	0.897674560546875	0.89813232421875	1.3482666015625E-06	1.2109218232581E-06	666138.5625	1.20231079563382E-05
1	110	76.8187388060513	0.907745361328125	0.90789794921875	1.35589599609375E-06	1.23101517601754E-06	669592.625	1.21592738651088E-05
1	111	76.9194468057971	0.917816162109375	0.91796875	1.36383056640625E-06	1.25195379041543E-06	673081.25	1.22962228488177E-05
1	112	77.0201548055428	0.927886962890625	0.927734375	1.370849609375E-06	1.27178418551921E-06	676758.75	1.24339248941396E-05
1	113	77.1208628052885	0.937957763671875	0.9381103515625	1.37908935546875E-06	1.29373802337795E-06	680239	1.25723954624846E-05
1	114	77.2215708050343	0.948028564453125	0.948486328125	1.38702392578125E-06	1.31557317217812E-06	683828.4375	1.27116800285876E-05
1	115	77.32227880478	0.958099365234375	0.95794677734375	1.39495849609375E-06	1.33629589527118E-06	686720.6875	1.28517640405335E-05
1	116	77.4229868045257	0.968170166015625	0.9686279296875	1.40350341796875E-06	1.35947254875646E-06	690150.0625	1.29926775116473E-05
1	117	77.5236948042715	0.978240966796875	0.97808837890625	1.41082763671875E-06	1.37991412429983E-06	693272.75	1.31343904286041E-05
1	118	77.6244028040172	0.988311767578125	0.98876953125	1.4190673828125E-06	1.40313056817831E-06	696774.25	1.32768873299938E-05
1	119	77.725110803763	0.998382568359375	0.99853515625	1.427001953125E-06	1.42491160204372E-06	699743.375	1.34201982291415E-05
1	120	77.8258188035087	1.00845336914063	1.00830078125	1.435546875E-06	1.44746309160837E-06	702380.9375	1.35643385874573E-05
1	121	77.9265268032544	1.01852416992188	1.0186767578125	1.44500732421875E-06	1.47199534694664E-06	704963.0625	1.37093866214855E-05
1	122	78.0272348030002	1.02859497070313	1.0284423828125	1.45294189453125E-06	1.49426705320366E-06	707834.5	1.38553095894167E-05
1	123	78.1279428027459	1.03866577148438	1.03851318359375	1.46240234375E-06	1.5187241615422E-06	710141.875	1.40021084007458E-05
1	124	78.2286508024916	1.04873657226563	1.04827880859375	1.47064208984375E-06	1.54164285959268E-06	712803.5	1.41497994263773E-05
1	125	78.3293588022374	1.05880737304688	1.0589599609375	1.4801025390625E-06	1.56736928147438E-06	715463.9375	1.42983808473218E-05
1	126	78.4300668019831	1.06887817382813	1.06842041015625	1.48895263671875E-06	1.59082742356986E-06	717565.0625	1.4447884495894E-05
1	127	78.5307748017289	1.07894897460938	1.07879638671875	1.49810791015625E-06	1.61615332672227E-06	720105.9375	1.45982958201785E-05
1	128	78.6314828014746	1.08901977539063	1.08917236328125	1.50787353515625E-06	1.64233415489434E-06	722323.4375	1.4749658475921E-05
1	129	78.7321908012203	1.09909057617188	1.0992431640625	1.517333984375E-06	1.66791903666308E-06	724456.9375	1.4901989743521E-05
1	130	78.8328988009661	1.10916137695313	1.10931396484375	1.5277099609375E-06	1.6947100220932E-06	726128.625	1.50553196363035E-05
1	131	78.9336068007118	1.11923217773438	1.11907958984375	1.53839111328125E-06	1.72158206623862E-06	727435.0625	1.52097109094029E-05
1	132	79.0343148004575	1.12930297851563	1.1297607421875	1.549072265625E-06	1.75008096903184E-06	729314.4375	1.53651762957452E-05
1	133	79.1350228002033	1.13937377929688	1.13922119140625	1.55975341796875E-06	1.77690412783704E-06	730385.4375	1.55217185238143E-05
1	134	79.235730799949	1.14944458007813	1.1492919921875	1.57135009765625E-06	1.80593997356482E-06	731404.1875	1.56793812493561E-05
1	135	79.3364387996947	1.15951538085938	1.15875244140625	1.58294677734375E-06	1.83424344868399E-06	732022.375	1.58382135850843E-05
1	136	79.4371467994405	1.16958618164063	1.16943359375	1.59454345703125E-06	1.86471265806176E-06	733397.1875	1.59982118930202E-05
1	137	79.5378547991862	1.17965698242188	1.17950439453125	1.60736083984375E-06	1.895889113257E-06	733814.3125	1.61594416567823E-05
1	138	79.638562798932	1.18972778320313	1.18927001953125	1.6204833984375E-06	1.92719221558946E-06	733898.3125	1.63219756359467E-05
1	139	79.7392707986777	1.19979858398438	1.1993408203125	1.63360595703125E-06	1.95925031221122E-06	734167.75	1.64858320204075E-05
1	140	79.8399787984234	1.20986938476563	1.21002197265625	1.6473388671875E-06	1.99331634576083E-06	734531.3125	1.66510417329846E-05
1	141	79.9406867981692	1.21994018554688	1.2200927734375	1.66168212890625E-06	2.02740625354636E-06	734251.625	1.68176629813388E-05
1	142	80.0413947979149	1.23001098632813	1.2298583984375	1.67633056640625E-06	2.06164918381546E-06	733661.0625	1.69857466971735E-05
1	143	80.1421027976606	1.24008178710938	1.23992919921875	1.6912841796875E-06	2.09707263820746E-06	733128.8125	1.71553183463402E-05
1	144	80.2428107974064	1.25015258789063	1.25	1.70654296875E-06	2.13317866837315E-06	732475	1.73264124896377E-05
1	145	80.3435187971521	1.26022338867188	1.26007080078125	1.72119140625E-06	2.16882290260401E-06	732092.25	1.74990127561614E-05
1	146	80.4442267968979	1.27029418945313	1.2701416015625	1.73583984375E-06	2.20476226786559E-06	731715.9375	1.76730882230913E-05
1	147	80.5449347966436	1.28036499023438	1.27960205078125	1.75140380859375E-06	2.24109976443287E-06	730615.125	1.7848686184152E-05
1	148	80.6456427963893	1.29043579101563	1.29058837890625	1.76666259765625E-06	2.2800340957474E-06	730523.4375	1.80258339241846E-05
1	149	80.7463507961351	1.30050659179688	1.3006591796875	1.78314208984375E-06	2.31925992011384E-06	729419.875	1.82045805559028E-05
1	150	80.8470587958808	1.31057739257813	1.31072998046875	1.7999267578125E-06	2.3592178877152E-06	728212.9375	1.83850024768617E-05
1	151	80.9477667956265	1.32064819335938	1.32049560546875	1.81793212890625E-06	2.40057147493644E-06	726372.3125	1.85671760846162E-05
1	152	81.0484747953723	1.33071899414063	1.33056640625	1.83685302734375E-06	2.44405487137556E-06	724372.8125	1.87512086995412E-05
1	153	81.149182795118	1.34078979492188	1.34063720703125	1.8560791015625E-06	2.48832861871051E-06	722295.3125	1.89371639862657E-05
1	154	81.2498907948637	1.35086059570313	1.3507080078125	1.87744140625E-06	2.5358751827298E-06	719440.8125	1.91251601791009E-05
1	155	81.3505987946095	1.36093139648438	1.361083984375	1.9000244140625E-06	2.58609270531451E-06	716350.8125	1.93153719010297E-05
1	156	81.4513067943552	1.37100219726563	1.37115478515625	1.925048828125E-06	2.63953984358523E-06	712270.1875	1.9507979232003E-05
1	157	81.552014794101	1.38107299804688	1.38092041015625	1.953125E-06	2.69710994871275E-06	707031.3125	1.97032604773995E-05
1	158	81.6527227938467	1.39114379882813	1.3916015625	1.98455810546875E-06	2.76171431323746E-06	701214.8125	1.9901539417333E-05
1	159	81.7534307935924	1.40121459960938	1.4013671875	2.0208740234375E-06	2.83198664874362E-06	693446.0625	2.01032289623981E-05
1	160	81.8541387933382	1.41128540039063	1.41143798828125	2.06298828125E-06	2.91177980216162E-06	684171.625	2.03088675334584E-05
1	161	81.9548467930839	1.42135620117188	1.42181396484375	2.11181640625E-06	3.00261012853298E-06	673265.875	2.05190845008474E-05
1	162	82.0555547928296	1.43142700195313	1.431884765625	2.1697998046875E-06	3.10690302285366E-06	659915.625	2.07346820388921E-05
1	163	82.1562627925754	1.44149780273438	1.441650390625	2.23907470703125E-06	3.2279626793752E-06	643859.9375	2.0956686057616E-05
1	164	82.2569707923211	1.45156860351563	1.451416015625	2.32330322265625E-06	3.37207939082873E-06	624720.9375	2.11864207813051E-05
1	165	82.3576787920668	1.46163940429688	1.461181640625	2.42462158203125E-06	3.54281246472965E-06	602643.1875	2.14254978345707E-05
1	166	82.4583867918126	1.47171020507813	1.4715576171875	2.5421142578125E-06	3.74086744159285E-06	578871.5625	2.16755925066536E-05
1	167	82.5590947915583	1.48178100585938	1.48193359375	2.67486572265625E-06	3.96397354052169E-06	554021.6875	2.19382873183349E-05
1	168	82.6598027913041	1.49185180664063	1.49169921875	2.81890869140625E-06	4.20496371589252E-06	529176.1875	2.22149210458156E-05
1	169	82.7605107910498	1.50192260742188	1.50177001953125	2.96875E-06	4.45837940787897E-06	505859.40625	2.25063540710835E-05
1	170	82.8612187907955	1.49185180664063	1.49169921875	2.53662109375E-06	3.78387562705029E-06	588065.5	2.27835716941627E-05
1	171	82.9619267905413	1.48178100585938	1.48193359375	2.21893310546875E-06	3.28831151819031E-06	667858.625	2.30230325541925E-05
1	172	83.062634790287	1.47171020507813	1.47186279296875	1.97113037109375E-06	2.90123352897353E-06	746710	2.32340189540992E-05
1	173	83.1633427900327	1.46163940429688	1.46148681640625	1.771240234375E-06	2.58864406532666E-06	825120.625	2.34224626183277E-05
1	174	83.2640507897785	1.45156860351563	1.451416015625	1.6094970703125E-06	2.33604987442959E-06	901782.3125	2.35926945606479E-05
1	175	83.3647587895242	1.44149780273438	1.44195556640625	1.47735595703125E-06	2.13028147300065E-06	976038.0625	2.37481308431597E-05
1	176	83.46546678927	1.43142700195313	1.43096923828125	1.37115478515625E-06	1.96208020497579E-06	1043623.4375	2.38915654335869E-05
1	177	83.5661747890157	1.42135620117188	1.42120361328125	1.2841796875E-06	1.82508085799782E-06	1106701.5	2.4025272068684E-05
1	178	83.6668827887614	1.41128540039063	1.41143798828125	1.21429443359375E-06	1.71390126979531E-06	1162352.375	2.41510788328014E-05
1	179	83.7675907885072	1.40121459960938	1.4013671875	1.1572265625E-06	1.62169931172684E-06	1210970.5	2.42704954871442E-05
1	180	83.8682987882529	1.39114379882813	1.3909912109375	1.11053466796875E-06	1.54474389546522E-06	1252542	2.43846861849306E-05
1	181	83.9690067879986	1.38107299804688	1.38153076171875	1.07208251953125E-06	1.48111485032132E-06	1288642.25	2.44945895246929E-05
1	182	84.0697147877444	1.37100219726563	1.3714599609375	1.04034423828125E-06	1.42679039072391E-06	1318275.25	2.4600958568044E-05
1	183	84.1704227874901	1.36093139648438	1.3604736328125	1.01318359375E-06	1.37840959268942E-06	1342771.125	2.47043626586674E-05
1	184	84.2711307872358	1.35086059570313	1.3507080078125	9.89990234375E-07	1.33718765482627E-06	1364365	2.48052292590728E-05
1	185	84.3718387869816	1.34078979492188	1.34124755859375	9.6923828125E-07	1.29998841202905E-06	1383816.125	2.49038839683635E-05
1	186	84.4725467867273	1.33071899414063	1.3299560546875	9.51232910156249E-07	1.26509792153229E-06	1398139.25	2.50005887210136E-05
1	187	84.5732547864731	1.32064819335938	1.32110595703125	9.3414306640625E-07	1.23410188734852E-06	1414243.75	2.50955235969741E-05
1	188	84.6739627862188	1.31057739257813	1.31072998046875	9.1888427734375E-07	1.20440915907238E-06	1426436.375	2.51888322964078E-05
1	189	84.7746707859645	1.30050659179688	1.30035400390625	9.051513671875E-07	1.17701722501806E-06	1436615	2.5280678528361E-05
1	190	84.8753787857103	1.29043579101563	1.29058837890625	8.92333984375E-07	1.15163584268885E-06	1446306.5	2.53711896220921E-05
1	191	84.976086785456	1.28036499023438	1.28021240234375	8.79821777343751E-07	1.12635871118982E-06	1455081.5	2.54604256042512E-05
1	192	85.0767947852017	1.27029418945313	1.27044677734375	8.685302734375E-07	1.10342148218479E-06	1462754.75	2.5548461053404E-05
1	193	85.1775027849475	1.26022338867188	1.26007080078125	8.5784912109375E-07	1.08095059658808E-06	1468872.375	2.56353923759889E-05
1	194	85.2782107846932	1.25015258789063	1.2506103515625	8.47473144531249E-07	1.0598586186461E-06	1475693.25	2.57212614087621E-05
1	195	85.378918784439	1.24008178710938	1.23992919921875	8.3892822265625E-07	1.04021160041157E-06	1477992	2.58061791100772E-05
1	196	85.4796267841847	1.23001098632813	1.23016357421875	8.30078125E-07	1.02113176581042E-06	1481985.375	2.58902200584998E-05
1	197	85.5803347839304	1.21994018554688	1.21978759765625	8.21838378906251E-07	1.00246825240902E-06	1484218.375	2.59734006249346E-05
1	198	85.6810427836762	1.20986938476563	1.20941162109375	8.14208984375001E-07	9.84713778962032E-07	1485382.25	2.60557808360318E-05
1	199	85.7817507834219	1.19979858398438	1.199951171875	8.06579589843751E-07	9.67856067290995E-07	1487703.375	2.61373952525901E-05
1	200	85.8824587831676	1.18972778320313	1.18988037109375	7.99560546875E-07	9.51381423419662E-07	1488167.875	2.62182711594505E-05
1	201	85.9831667829134	1.17965698242188	1.17919921875	7.92846679687501E-07	9.34924173634499E-07	1487298	2.62984540313482E-05
1	202	86.0838747826591	1.16958618164063	1.16912841796875	7.86743164062501E-07	9.19803767374106E-07	1486035.75	2.63779929809971E-05
1	203	86.1845827824048	1.15951538085938	1.15966796875	7.80639648437501E-07	9.05282774965599E-07	1485535.625	2.64569171122275E-05
1	204	86.2852907821506	1.14944458007813	1.1492919921875	7.74230957031249E-07	8.89817442839558E-07	1484430.375	2.65352118731244E-05
1	205	86.3859987818963	1.13937377929688	1.13983154296875	7.6873779296875E-07	8.7623158151473E-07	1482731.25	2.6612906367518E-05
1	206	86.4867067816421	1.12930297851563	1.1297607421875	7.62939453125E-07	8.61938985963207E-07	1480800.125	2.66900315182284E-05
1	207	86.5874147813878	1.11923217773438	1.11907958984375	7.574462890625E-07	8.47642695589457E-07	1477437.5	2.67665891442448E-05
1	208	86.6881227811335	1.10916137695313	1.109619140625	7.51953125E-07	8.34381580716581E-07	1475649.375	2.68425937974826E-05
1	209	86.7888307808793	1.09909057617188	1.0992431640625	7.46765136718749E-07	8.20876437046536E-07	1472006.625	2.69180600298569E-05
1	210	86.889538780625	1.08901977539063	1.0888671875	7.4127197265625E-07	8.07146705028572E-07	1468917.25	2.69929878413677E-05
1	211	86.9902467803707	1.07894897460938	1.0791015625	7.3516845703125E-07	7.93321419223503E-07	1467829	2.70673335762694E-05
1	212	87.0909547801165	1.06887817382813	1.06842041015625	7.2967529296875E-07	7.79599929501273E-07	1464241	2.71410935965832E-05
1	213	87.1916627798622	1.05880737304688	1.05865478515625	7.244873046875E-07	7.66981941069389E-07	1461246.875	2.7214317015023E-05
1	214	87.2923707796079	1.04873657226563	1.048583984375	7.1868896484375E-07	7.5360571827332E-07	1459023.375	2.7286987460684E-05
1	215	87.3930787793537	1.03866577148438	1.0382080078125	7.13500976562501E-07	7.4076245937249E-07	1455089.75	2.7359103114577E-05
1	216	87.4937867790994	1.02859497070313	1.0284423828125	7.07397460937501E-07	7.27517488030571E-07	1453839.625	2.74306512437761E-05
1	217	87.5944947788452	1.01852416992188	1.01898193359375	7.01904296875E-07	7.15227827186027E-07	1451739.125	2.75016154773766E-05
1	218	87.6952027785909	1.00845336914063	1.00860595703125	6.9610595703125E-07	7.02096599525248E-07	1448926	2.75720103672938E-05
1	219	87.7959107783366	0.998382568359375	0.99822998046875	6.903076171875E-07	6.89085766225617E-07	1446065.375	2.76418213616125E-05
1	220	87.8966187780824	0.988311767578125	0.9881591796875	6.8389892578125E-07	6.75801004490495E-07	1444890.75	2.77110193565022E-05
1	221	87.9973267778281	0.978240966796875	0.97869873046875	6.7779541015625E-07	6.63357525354513E-07	1443944.125	2.77795861620689E-05
1	222	88.0980347775738	0.968170166015625	0.968017578125	6.7169189453125E-07	6.50209528885171E-07	1441163.25	2.78475381492171E-05
1	223	88.1987427773196	0.958099365234375	0.95794677734375	6.65283203125E-07	6.37305902273511E-07	1439908.25	2.79148589470424E-05
1	224	88.2994507770653	0.948028564453125	0.94818115234375	6.58264160156249E-07	6.24153642547753E-07	1440426.625	2.79815048997989E-05
1	225	88.4001587768111	0.937957763671875	0.93780517578125	6.5185546875E-07	6.11313396348123E-07	1438670.5	2.80474760074867E-05
1	226	88.5008667765568	0.927886962890625	0.92803955078125	6.4544677734375E-07	5.99000145484752E-07	1437825	2.81127995549468E-05
1	227	88.6015747763025	0.917816162109375	0.91796875	6.390380859375E-07	5.86616977216181E-07	1436485.125	2.81774791801581E-05
1	228	88.7022827760483	0.907745361328125	0.9075927734375	6.32324218749999E-07	5.73892862121284E-07	1435328.25	2.82414966932265E-05
1	229	88.802990775794	0.897674560546875	0.89813232421875	6.256103515625E-07	5.61880824534455E-07	1435609.875	2.83048393612262E-05
1	230	88.9036987755397	0.887603759765625	0.887451171875	6.1920166015625E-07	5.49511241842993E-07	1433218.25	2.8367519917083E-05
1	231	89.0044067752855	0.877532958984375	0.8782958984375	6.121826171875E-07	5.37677465217712E-07	1434696	2.8429525627871E-05
1	232	89.1051147750312	0.867462158203125	0.86700439453125	6.0546875E-07	5.2494408464554E-07	1431955.625	2.84908383036964E-05
1	233	89.2058227747769	0.857391357421875	0.8575439453125	5.99060058593751E-07	5.13720351591473E-07	1431482.375	2.85514925053576E-05
1	234	89.3065307745227	0.847320556640625	0.84716796875	5.92041015625E-07	5.01558133692015E-07	1430927.875	2.86114682239713E-05
1	235	89.4072387742684	0.837249755859375	0.83740234375	5.84716796875E-07	4.89643184664601E-07	1432150.375	2.86707236227812E-05
1	236	89.5079467740142	0.827178955078125	0.8270263671875	5.780029296875E-07	4.78023650885007E-07	1430834.25	2.87292696157238E-05
1	237	89.6086547737599	0.817108154296875	0.81695556640625	5.7037353515625E-07	4.65969804963606E-07	1432316.75	2.87870952888625E-05
1	238	89.7093627735056	0.807037353515625	0.806884765625	5.62744140625E-07	4.54069635225096E-07	1433839.625	2.88441533484729E-05
1	239	89.8100707732514	0.796966552734375	0.7965087890625	5.54809570312501E-07	4.41910685822222E-07	1435643.625	2.8900425604661E-05
1	240	89.9107787729971	0.786895751953125	0.78704833984375	5.462646484375E-07	4.29936676482612E-07	1440782.125	2.89558702206705E-05
1	241	90.0114867727428	0.776824951171875	0.77667236328125	5.38024902343751E-07	4.17869074453847E-07	1443562.125	2.90104671876179E-05
1	242	90.1121947724886	0.766754150390625	0.76690673828125	5.2978515625E-07	4.06295811217205E-07	1447580.625	2.90642365143867E-05
1	243	90.2129027722343	0.756683349609375	0.7568359375	5.20935058593749E-07	3.94262343661467E-07	1452841.375	2.91171436401783E-05
1	244	90.3136107719801	0.746612548828125	0.74652099609375	5.126953125E-07	3.82737795234789E-07	1456071.5	2.91691922029713E-05
1	245	90.4143187717258	0.736541748046875	0.7364501953125	5.04150390624999E-07	3.71281629441E-07	1460774.875	2.92203949356917E-05
1	246	90.5150267714715	0.726470947265625	0.72637939453125	4.95300292968751E-07	3.59775924607675E-07	1466543.375	2.92707209155196E-05
1	247	90.6157347712173	0.716400146484375	0.716278076171875	4.8675537109375E-07	3.48652207549094E-07	1471536	2.9320170142455E-05
1	248	90.716442770963	0.706329345703125	0.706268310546875	4.78210449218749E-07	3.37744864964407E-07	1476898.625	2.93687608063919E-05
1	249	90.8171507707087	0.696258544921875	0.6961669921875	4.7027587890625E-07	3.27390523580107E-07	1480337.5	2.94165201921714E-05
1	250	90.9178587704545	0.686187744140625	0.686065673828125	4.62646484375E-07	3.17405863370368E-07	1482915.625	2.94634974125074E-05
1	251	91.0185667702002	0.676116943359375	0.676025390625	4.5501708984375E-07	3.07603102100984E-07	1485714.375	2.95097052003257E-05
1	252	91.1192747699459	0.666046142578125	0.666015625	4.47998046875001E-07	2.98373691975939E-07	1486648.5	2.95551762974355E-05
1	253	91.2199827696917	0.655975341796875	0.6558837890625	4.40673828125E-07	2.89030822386849E-07	1488365.625	2.95999234367628E-05
1	254	91.3206907694374	0.645904541015625	0.645843505859375	4.33959960937499E-07	2.80270199937149E-07	1488256	2.96439648082014E-05
1	255	91.4213987691832	0.635833740234375	0.635772705078125	4.2724609375E-07	2.71631392934069E-07	1488071.5	2.9687329515582E-05
1	256	91.5221067689289	0.625762939453125	0.62567138671875	4.2083740234375E-07	2.63305906855749E-07	1486729.625	2.9730033929809E-05
1	257	91.6228147686746	0.615692138671875	0.615631103515625	4.1534423828125E-07	2.55698836326701E-07	1482219	2.97721398965223E-05
1	258	91.7235227684204	0.605621337890625	0.605560302734375	4.0924072265625E-07	2.47819912146952E-07	1479716.75	2.98136601486476E-05
1	259	91.8242307681661	0.595550537109375	0.595550537109375	4.03442382812499E-07	2.40270338736082E-07	1476172.5	2.98545819532592E-05
1	260	91.9249387679118	0.585479736328125	0.58544921875	3.9825439453125E-07	2.3315770647514E-07	1470038.375	2.98949507850921E-05
1	261	92.0256467676576	0.575408935546875	0.575347900390625	3.936767578125E-07	2.26501086331155E-07	1461472.875	2.9934828489786E-05
1	262	92.1263547674033	0.565338134765625	0.565338134765625	3.8909912109375E-07	2.19972562831572E-07	1452941.25	2.99742441711714E-05
1	263	92.2270627671491	0.555267333984375	0.55517578125	3.8421630859375E-07	2.13307586705014E-07	1444956.375	3.00131832773332E-05
1	264	92.3277707668948	0.545196533203125	0.545166015625	3.802490234375E-07	2.07298839427494E-07	1433707.875	3.0051676731091E-05
1	265	92.4284787666405	0.535125732421875	0.53509521484375	3.76281738281251E-07	2.01346551875758E-07	1422060.125	3.00897718261695E-05
1	266	92.5291867663863	0.525054931640625	0.525054931640625	3.72314453125E-07	1.95485540643858E-07	1410245.875	3.01274667435791E-05
1	267	92.629894766132	0.514984130859375	0.51495361328125	3.68347167968749E-07	1.89681699680477E-07	1398011.625	3.016476148332E-05
1	268	92.7306027658777	0.504913330078125	0.504852294921875	3.64074707031251E-07	1.83803948061723E-07	1386672.25	3.02016414934769E-05
1	269	92.8313107656235	0.494842529296875	0.49481201171875	3.6041259765625E-07	1.78336478029451E-07	1372904.25	3.02381231449544E-05
1	270	92.9320187653692	0.484771728515625	0.484649658203125	3.570556640625E-07	1.73046899476503E-07	1357350.5	3.02742500934983E-05
1	271	93.0327267651149	0.474700927734375	0.47467041015625	3.53393554687501E-07	1.67745454859869E-07	1343177.875	3.03100241580978E-05
1	272	93.1334347648607	0.464630126953125	0.464630126953125	3.497314453125E-07	1.62495766176107E-07	1328534.125	3.03454289678484E-05
1	273	93.2341427646064	0.454559326171875	0.454559326171875	3.460693359375E-07	1.57309045789589E-07	1313492.125	3.03804663417395E-05
1	274	93.3348507643522	0.444488525390625	0.444549560546875	3.43017578125E-07	1.52488311755405E-07	1295996.5	3.04151635646122E-05
1	275	93.4355587640979	0.434417724609375	0.43438720703125	3.387451171875E-07	1.47146536733089E-07	1282342.375	3.04494933516253E-05
1	276	93.5362667638436	0.424346923828125	0.424346923828125	3.3447265625E-07	1.41932432029535E-07	1268704.375	3.04833938571392E-05
1	277	93.6369747635894	0.414276123046875	0.414306640625	3.30200195312499E-07	1.3680413246675E-07	1254713.5	3.0516861443175E-05
1	278	93.7376827633351	0.404205322265625	0.4041748046875	3.265380859375E-07	1.31978467265981E-07	1237757.125	3.05499306705315E-05
1	279	93.8383907630808	0.394134521484375	0.39410400390625	3.22570800781249E-07	1.27126440929715E-07	1221759.75	3.05826179101132E-05
1	280	93.9390987628266	0.384063720703125	0.384063720703125	3.18603515625E-07	1.22364042454137E-07	1205459.875	3.06149013340473E-05
1	281	94.0398067625723	0.373992919921875	0.3740234375	3.15246582031251E-07	1.17909607411093E-07	1186447.25	3.06468209601007E-05
1	282	94.140514762318	0.363922119140625	0.363922119140625	3.11279296875E-07	1.13281416247446E-07	1169117.75	3.0678365874337E-05
1	283	94.2412227620638	0.353851318359375	0.35382080078125	3.0853271484375E-07	1.09165291917179E-07	1146785.375	3.07095760945231E-05
1	284	94.3419307618095	0.343780517578125	0.34375	3.0487060546875E-07	1.04799269706746E-07	1127527.5	3.07404661725741E-05
1	285	94.4426387615553	0.333709716796875	0.33367919921875	3.0242919921875E-07	1.00914327560986E-07	1103330	3.07710433844477E-05
1	286	94.543346761301	0.323638916015625	0.323638916015625	2.9876708984375E-07	9.66926521073219E-08	1083248.25	3.08013186440803E-05
1	287	94.6440547610467	0.313568115234375	0.3135986328125	2.960205078125E-07	9.28316197246204E-08	1059381.5	3.08312664856203E-05
1	288	94.7447627607925	0.303497314453125	0.303497314453125	2.9296875E-07	8.89152218519484E-08	1035937.5625	3.08609232888557E-05
1	289	94.8454707605382	0.293426513671875	0.293365478515625	2.8961181640625E-07	8.49621102361198E-08	1012961	3.08902599499561E-05
1	290	94.9461787602839	0.283355712890625	0.2833251953125	2.86865234375E-07	8.12761484780822E-08	987659.5625	3.09192873828579E-05
1	291	95.0468867600297	0.273284912109375	0.273284912109375	2.82897949218749E-07	7.73117392327549E-08	966019.5	3.09479764837306E-05
1	292	95.1475947597754	0.263214111328125	0.263153076171875	2.79541015625E-07	7.35620773184564E-08	941375.5625	3.09762981487438E-05
1	293	95.2483027595212	0.253143310546875	0.25311279296875	2.75573730468751E-07	6.97512305691816E-08	918494	3.10042523778975E-05
1	294	95.3490107592669	0.243072509765625	0.243011474609375	2.7130126953125E-07	6.59293206695111E-08	895725.5	3.10317882394884E-05
1	295	95.4497187590126	0.233001708984375	0.23297119140625	2.66418457031251E-07	6.20678264340313E-08	874455.9375	3.10588657157496E-05
1	296	95.5504267587584	0.222930908203125	0.22296142578125	2.6214599609375E-07	5.84484425303344E-08	850523.875	3.10854811687022E-05
1	297	95.6511347585041	0.212860107421875	0.212921142578125	2.56958007812499E-07	5.47117906535277E-08	828622.3125	3.11116200464312E-05
1	298	95.7518427582498	0.202789306640625	0.202850341796875	2.51159667968751E-07	5.09478219612447E-08	807654.9375	3.11372059513815E-05
1	299	95.8525507579956	0.192718505859375	0.192657470703125	2.45361328125E-07	4.72706922494126E-08	785199	3.11622061417438E-05
1	300	95.9532587577413	0.182647705078125	0.1826171875	2.38647460937499E-07	4.35811280397047E-08	765217.375	3.11865769617725E-05
1	301	96.053966757487	0.172576904296875	0.172576904296875	2.31018066406249E-07	3.98683823732426E-08	747027.75	3.12102274619974E-05
1	302	96.1546747572328	0.162506103515625	0.1624755859375	2.22167968750001E-07	3.60968712698195E-08	731318.6875	3.12330485030543E-05
1	303	96.2553827569785	0.152435302734375	0.152496337890625	2.1026611328125E-07	3.20648112506206E-08	725254	3.12548218062147E-05
1	304	96.3560907567243	0.142364501953125	0.142425537109375	1.96533203125E-07	2.7991346129852E-08	724689.5	3.12753072648775E-05
1	305	96.45679875647	0.132293701171875	0.13232421875	1.7822265625E-07	2.35831727479763E-08	742465.8125	3.12941774609499E-05
1	306	96.5575067562157	0.122222900390625	0.12225341796875	1.55029296875001E-07	1.89528623906199E-08	788582.6875	3.1310959457187E-05
1	307	96.6582147559615	0.112152099609375	0.1121826171875	1.23291015625E-07	1.38311087027887E-08	909901	3.13249729515519E-05
1	308	96.7589227557072	0.102081298828125	0.10211181640625	8.11767578124997E-08	8.28910629024904E-09	1257894.75	3.1335268431576E-05
1	309	96.8596307554529	0.092010498046875	0.092041015625	2.34985351562494E-08	2.16282902698595E-09	3916883.25	3.13405398628674E-05
1	310	96.9603387551987	0.081939697265625	0.0819091796875	-5.52368164062497E-08	-4.52440218623451E-09	-1482873	3.13389391521923E-05
1	311	97.0610467549444	0.071868896484375	0.07183837890625	-1.59912109375E-07	-1.14878266899154E-08	-449236.65625	3.13281088892836E-05
1	312	97.1617547546902	0.061798095703125	0.06182861328125	-2.9632568359375E-07	-1.83214066140636E-08	-208650.875	3.13051350531168E-05
1	313	97.2624627544359	0.051727294921875	0.05181884765625	-4.7027587890625E-07	-2.4369153805992E-08	-110188.1953125	3.12665324599948E-05
1	314	97.3631707541816	0.041656494140625	0.0417449951171875	-6.8023681640625E-07	-2.83964816105708E-08	-61368.33203125	3.12085976474918E-05
1	315	97.4638787539274	0.031585693359375	0.031658935546875	-9.20715332031249E-07	-2.9148866431683E-08	-34385.15234375	3.11279836751055E-05
1	316	97.5645867536731	0.021514892578125	0.0216064453125	-1.17279052734375E-06	-2.53398333427413E-08	-18423.107421875	3.10225696011912E-05
1	317	97.6652947534188	0.011444091796875	0.0115325927734375	-1.41387939453125E-06	-1.63056945723383E-08	-8156.7021484375	3.08923190459609E-05
1	318	97.7660027531646	0.001373291015625	0.00147399902343751	-1.619873046875E-06	-2.38769115590287E-09	-909.947265625	3.07395566778723E-05
1	319	97.8667107529103	-0.008697509765625	-0.0086212158203125	-1.768798828125E-06	1.5249195683964E-08	4874.05126953125	3.05689245578833E-05
1	320	97.967418752656	-0.018768310546875	-0.01866455078125	-1.85394287109375E-06	3.46030084585891E-08	10067.4892578125	3.03865053865593E-05
1	321	98.0681267524018	-0.028839111328125	-0.028729248046875	-1.8792724609375E-06	5.39900852913888E-08	15287.431640625	3.01985237456392E-05
1	322	98.1688347521475	-0.038909912109375	-0.0387725830078125	-1.85791015625E-06	7.20359736305909E-08	20868.923828125	3.00103401968954E-05
1	323	98.2695427518933	-0.048980712890625	-0.0488494873046875	-1.80511474609375E-06	8.81789290474444E-08	27061.70703125	2.98258928523865E-05
1	324	98.370250751639	-0.059051513671875	-0.058990478515625	-1.73614501953125E-06	1.02416024105878E-07	33977.8515625	2.96475755021675E-05
1	325	98.4709587513847	-0.069122314453125	-0.069091796875	-1.66015625E-06	1.14703169629138E-07	41617.6484375	2.94765595754143E-05
1	326	98.5716667511305	-0.079193115234375	-0.07916259765625	-1.585693359375E-06	1.25527606087417E-07	49923.01953125	2.93131179205375E-05
1	327	98.6723747508762	-0.089263916015625	-0.089202880859375	-1.51580810546875E-06	1.35214449414889E-07	58848.3984375	2.91569449473172E-05
1	328	98.7730827506219	-0.099334716796875	-0.099273681640625	-1.45233154296875E-06	1.4417830129787E-07	68354.6953125	2.90074858639855E-05
1	329	98.8737907503677	-0.109405517578125	-0.1092529296875	-1.395263671875E-06	1.52436641087661E-07	78302.7109375	2.88640985672828E-05
1	330	98.9744987501134	-0.119476318359375	-0.119415283203125	-1.34613037109375E-06	1.60748541588873E-07	88710.0390625	2.87260590994265E-05
1	331	99.0752067498591	-0.129547119140625	-0.129486083984375	-1.30279541015625E-06	1.68693873092707E-07	99390.9609375	2.85926744254539E-05
1	332	99.1759147496049	-0.139617919921875	-0.1395263671875	-1.26556396484375E-06	1.76579533217591E-07	110248.375	2.84633479168406E-05
1	333	99.2766227493506	-0.149688720703125	-0.1495361328125	-1.23382568359375E-06	1.84501516287128E-07	121197.1328125	2.83374938589986E-05
1	334	99.3773307490964	-0.159759521484375	-0.15966796875	-1.20635986328125E-06	1.92617022776176E-07	132355.1875	2.82146211247891E-05
1	335	99.4780387488421	-0.169830322265625	-0.169708251953125	-1.18377685546875E-06	2.00896693058894E-07	143361.703125	2.80942676909035E-05
1	336	99.5787467485878	-0.179901123046875	-0.17974853515625	-1.16485595703125E-06	2.09381141758058E-07	154309.671875	2.79760042758426E-05
1	337	99.6794547483336	-0.189971923828125	-0.1898193359375	-1.14959716796875E-06	2.1821576012826E-07	165118.140625	2.78594616247574E-05
1	338	99.7801627480793	-0.200042724609375	-0.199981689453125	-1.1370849609375E-06	2.27396171226246E-07	175872.25	2.77443195955129E-05
1	339	99.880870747825	-0.189971923828125	-0.189788818359375	-9.747314453125E-07	1.84993112384291E-07	194708.84375	2.76379796559922E-05
2	340	99.9815787475708	-0.179901123046875	-0.17974853515625	-8.6700439453125E-07	1.55842769800074E-07	207321.375	2.75452421192313E-05
2	341	100.082286747317	-0.169830322265625	-0.169708251953125	-7.8155517578125E-07	1.32636358785021E-07	217141.75	2.7462230718811E-05
2	342	100.182994747062	-0.159759521484375	-0.15960693359375	-7.10144042968749E-07	1.13343908481056E-07	224752.90625	2.7387117370381E-05
2	343	100.283702746808	-0.149688720703125	-0.14959716796875	-6.4727783203125E-07	9.68309308291282E-08	231117.390625	2.7318765205564E-05
2	344	100.384410746554	-0.139617919921875	-0.139495849609375	-5.92041015625E-07	8.25872561449614E-08	235618.578125	2.72563611360965E-05
2	345	100.485118746299	-0.129547119140625	-0.12945556640625	-5.41076660156251E-07	7.00453810509316E-08	239255.5	2.71993030764861E-05
2	346	100.585826746045	-0.119476318359375	-0.119384765625	-4.925537109375E-07	5.88034048121244E-08	242379.203125	2.71472563326824E-05
2	347	100.686534745791	-0.109405517578125	-0.109375	-4.4525146484375E-07	4.86993769754918E-08	245647.703125	2.7100033548777E-05
2	348	100.787242745537	-0.099334716796875	-0.099212646484375	-3.97338867187499E-07	3.94210388776628E-08	249692.796875	2.70576056209393E-05
2	349	100.887950745282	-0.089263916015625	-0.089202880859375	-3.466796875E-07	3.09248271435081E-08	257306.34375	2.70201417151839E-05
2	350	100.988658745028	-0.079193115234375	-0.079193115234375	-2.899169921875E-07	2.29594299128166E-08	273157.90625	2.69880874839146E-05
2	351	101.089366744774	-0.069122314453125	-0.069091796875	-2.21862792968749E-07	1.5328899038991E-08	311416.78125	2.69623160420451E-05
2	352	101.19007474452	-0.059051513671875	-0.058990478515625	-1.39770507812501E-07	8.24512902397601E-09	422052.40625	2.69441061391262E-05
2	353	101.290782744265	-0.048980712890625	-0.0488433837890625	-3.63159179687503E-08	1.77379233523567E-09	1344958	2.69352403847734E-05
2	354	101.391490744011	-0.038909912109375	-0.038787841796875	9.49096679687497E-08	-3.6813410098091E-09	-408681.6875	2.69381907855859E-05
2	355	101.492198743757	-0.028839111328125	-0.0287017822265625	2.5909423828125E-07	-7.43646655365637E-09	-110777.3828125	2.69560168817407E-05
2	356	101.592906743503	-0.018768310546875	-0.0186614990234375	4.58984375E-07	-8.56533688420313E-09	-40658.24609375	2.69921747531043E-05
2	357	101.693614743248	-0.008697509765625	-0.008624267578125	6.9305419921875E-07	-5.97708460503554E-09	-12443.8583984375	2.70501841441728E-05
2	358	101.794322742994	0.001373291015625	0.00147094726562499	9.4940185546875E-07	1.39652012176583E-09	1549.34106445313	2.71328881353838E-05
2	359	101.89503074274	0.011444091796875	0.0115386962890625	1.209716796875E-06	1.39585543124099E-08	9538.345703125	2.72416091320338E-05
2	360	101.995738742486	0.021514892578125	0.0215972900390625	1.44775390625E-06	3.12675609848156E-08	14917.791015625	2.73754230875056E-05
2	361	102.096446742231	0.031585693359375	0.0316864013671875	1.64154052734375E-06	5.20145135851635E-08	19302.845703125	2.75309812423075E-05
2	362	102.197154741977	0.041656494140625	0.04173583984375	1.77581787109375E-06	7.41152490491004E-08	23502.3203125	2.77030594588723E-05
2	363	102.297862741723	0.051727294921875	0.0517578125	1.846923828125E-06	9.55927319523653E-08	28023.794921875	2.78854786301963E-05
2	364	102.398570741468	0.061798095703125	0.061798095703125	1.86309814453125E-06	1.15135911471498E-07	33169.53515625	2.80722924799193E-05
2	365	102.499278741214	0.071868896484375	0.071929931640625	1.839599609375E-06	1.32322270474106E-07	39100.86328125	2.82587388937827E-05
2	366	102.59998674096	0.081939697265625	0.08203125	1.7901611328125E-06	1.46849146176464E-07	45823.390625	2.8441510949051E-05
2	367	102.700694740706	0.092010498046875	0.092010498046875	1.72698974609375E-06	1.58901187319316E-07	53277.96484375	2.86186132143484E-05
2	368	102.801402740451	0.102081298828125	0.1021728515625	1.6595458984375E-06	1.69560536278368E-07	61566.75390625	2.87891398329521E-05
2	369	102.902110740197	0.112152099609375	0.11224365234375	1.59332275390625E-06	1.78840366515942E-07	70446.2734375	2.89529343717732E-05
2	370	103.002818739943	0.122222900390625	0.12225341796875	1.53045654296875E-06	1.87103537996336E-07	79880.359375	2.91102296614554E-05
2	371	103.103526739689	0.132293701171875	0.132354736328125	1.47430419921875E-06	1.95131150348971E-07	89774.375	2.92615313810529E-05
2	372	103.204234739434	0.142364501953125	0.14239501953125	1.4227294921875E-06	2.02589589548552E-07	100085.796875	2.94074088742491E-05
2	373	103.30494273918	0.152435302734375	0.1524658203125	1.37725830078125E-06	2.0998481886636E-07	110702.4140625	2.95483987429179E-05
2	374	103.405650738926	0.162506103515625	0.1624755859375	1.33636474609375E-06	2.17126640222887E-07	121580.2734375	2.96850412269123E-05
2	375	103.506358738672	0.172576904296875	0.172576904296875	1.30035400390625E-06	2.24411053295626E-07	132715.328125	2.98178092634771E-05
2	376	103.607066738417	0.182647705078125	0.182647705078125	1.2689208984375E-06	2.31765483249546E-07	143939.390625	2.99471830658149E-05
2	377	103.707774738163	0.192718505859375	0.19268798828125	1.24053955078125E-06	2.39037063920478E-07	155325.953125	3.00735446217004E-05
2	378	103.808482737909	0.202789306640625	0.20281982421875	1.21551513671875E-06	2.46530561298641E-07	166859.15625	3.01972158922581E-05
2	379	103.909190737655	0.212860107421875	0.212890625	1.19354248046875E-06	2.54093976082004E-07	178368.71875	3.03185224765912E-05
2	380	104.0098987374	0.222930908203125	0.22296142578125	1.1737060546875E-06	2.6169115585617E-07	189963.609375	3.04377226711949E-05
2	381	104.110606737146	0.233001708984375	0.23297119140625	1.156005859375E-06	2.6931604679703E-07	201531.15625	3.05550347547978E-05
2	382	104.211314736892	0.243072509765625	0.24310302734375	1.13983154296875E-06	2.77096489753603E-07	213279.796875	3.06706388073508E-05
2	383	104.312022736637	0.253143310546875	0.25311279296875	1.12548828125E-06	2.84875454781286E-07	224891.546875	3.07847039948683E-05
2	384	104.412730736383	0.263214111328125	0.263153076171875	1.11236572265625E-06	2.92722461381345E-07	236570.65625	3.0897390388418E-05
2	385	104.513438736129	0.273284912109375	0.27325439453125	1.10076904296875E-06	3.00789992024875E-07	248239.53125	3.10088289552368E-05
2	386	104.614146735875	0.283355712890625	0.2833251953125	1.09039306640625E-06	3.08935824477885E-07	259837.671875	3.11191652144771E-05
2	387	104.71485473562	0.293426513671875	0.293365478515625	1.0809326171875E-06	3.17108316494341E-07	271400.34375	3.12285010295454E-05
2	388	104.815562735366	0.303497314453125	0.303466796875	1.07269287109375E-06	3.2552665629737E-07	282901.84375	3.13369419018272E-05
2	389	104.916270735112	0.313568115234375	0.3135986328125	1.06536865234375E-06	3.3409816069252E-07	294356.90625	3.14446042466443E-05
2	390	105.016978734858	0.323638916015625	0.323638916015625	1.0589599609375E-06	3.42720653634387E-07	305619.59375	3.15515717375092E-05
2	391	105.117686734603	0.333709716796875	0.333770751953125	1.05377197265625E-06	3.51718256297318E-07	316739.0625	3.1657957151765E-05
2	392	105.218394734349	0.343780517578125	0.343780517578125	1.0491943359375E-06	3.60692581580224E-07	327661.4375	3.1763847800903E-05
2	393	105.319102734095	0.353851318359375	0.3538818359375	1.04461669921875E-06	3.69670857480742E-07	338767.1875	3.18692800647113E-05
2	394	105.419810733841	0.363922119140625	0.363861083984375	1.0418701171875E-06	3.79095979496924E-07	349238.4375	3.19743448926602E-05
2	395	105.520518733586	0.373992919921875	0.373992919921875	1.0394287109375E-06	3.8873895391589E-07	359806.25	3.2079144148156E-05
2	396	105.621226733332	0.384063720703125	0.384063720703125	1.03790283203125E-06	3.98620841224329E-07	370038.21875	3.21837469527964E-05
2	397	105.721934733078	0.394134521484375	0.394134521484375	1.03668212890625E-06	4.08592200074054E-07	380188.40625	3.2288211514242E-05
2	398	105.822642732824	0.404205322265625	0.404205322265625	1.03668212890625E-06	4.19032403442543E-07	389902.875	3.23926142300479E-05
2	399	105.923350732569	0.414276123046875	0.414306640625	1.03607177734375E-06	4.29251429068245E-07	399882.15625	3.24969842040446E-05
2	400	106.024058732315	0.424346923828125	0.42437744140625	1.0357666015625E-06	4.39555975617623E-07	409723.0625	3.26013105222955E-05
2	401	106.124766732061	0.434417724609375	0.434417724609375	1.036376953125E-06	4.50220511538646E-07	419169.625	3.27056513924617E-05
2	402	106.225474731806	0.444488525390625	0.4444580078125	1.03729248046875E-06	4.61032954035545E-07	428478.96875	3.28100686601829E-05
2	403	106.326182731552	0.454559326171875	0.454559326171875	1.0382080078125E-06	4.71927108947057E-07	437830.6875	3.29145768773742E-05
2	404	106.426890731298	0.464630126953125	0.464630126953125	1.0394287109375E-06	4.82949872093741E-07	447005.3125	3.30191942339297E-05
2	405	106.527598731044	0.474700927734375	0.474700927734375	1.041259765625E-06	4.94287007768435E-07	455890.96875	3.31239643855952E-05
2	406	106.628306730789	0.484771728515625	0.48480224609375	1.0430908203125E-06	5.05692753449694E-07	464774.71875	3.32289200741798E-05
2	407	106.729014730535	0.494842529296875	0.494842529296875	1.04583740234375E-06	5.17524824772408E-07	473154.375	3.3334108593408E-05
2	408	106.829722730281	0.504913330078125	0.50482177734375	1.04888916015625E-06	5.29502074186894E-07	481291.84375	3.3439584512962E-05
2	409	106.930430730027	0.514984130859375	0.514923095703125	1.0528564453125E-06	5.42140071502217E-07	489072.46875	3.35454169544391E-05
2	410	107.031138729772	0.525054931640625	0.524993896484375	1.0565185546875E-06	5.54665746221872E-07	496909.3125	3.3651631383691E-05
2	411	107.131846729518	0.535125732421875	0.535125732421875	1.060791015625E-06	5.67656513794645E-07	504459.1875	3.37582459906116E-05
2	412	107.232554729264	0.545196533203125	0.545196533203125	1.06597900390625E-06	5.81168023927603E-07	511451.5	3.3865337172756E-05
2	413	107.33326272901	0.555267333984375	0.5552978515625	1.07147216796875E-06	5.94986204305314E-07	518256.90625	3.39729667757638E-05
2	414	107.433970728755	0.565338134765625	0.5653076171875	1.0772705078125E-06	6.08989182637742E-07	524759.25	3.40811639034655E-05
2	415	107.534678728501	0.575408935546875	0.57537841796875	1.08306884765625E-06	6.23174400971038E-07	531248.25	3.41899467457552E-05
2	416	107.635386728247	0.585479736328125	0.58544921875	1.08917236328125E-06	6.37655091395573E-07	537517.5625	3.4299329854548E-05
2	417	107.736094727993	0.595550537109375	0.59552001953125	1.09588623046875E-06	6.52622190955299E-07	543414.125	3.44093532476109E-05
2	418	107.836802727738	0.605621337890625	0.605621337890625	1.10260009765625E-06	6.6775817231246E-07	549266.5625	3.45200569427107E-05
2	419	107.937510727484	0.615692138671875	0.615631103515625	1.1102294921875E-06	6.83491805375525E-07	554507.9375	3.46314809576143E-05
2	420	108.03821872723	0.625762939453125	0.625701904296875	1.11785888671875E-06	6.9944644565112E-07	559732.4375	3.4743676224025E-05
2	421	108.138926726975	0.635833740234375	0.6357421875	1.12579345703125E-06	7.15714406851475E-07	564705.875	3.48566536558792E-05
2	422	108.239634726721	0.645904541015625	0.645843505859375	1.13372802734375E-06	7.32210878595652E-07	569663.5625	3.49704278050922E-05
2	423	108.340342726467	0.655975341796875	0.65594482421875	1.1419677734375E-06	7.49067851302243E-07	574398.6875	3.5085016861558E-05
2	424	108.441050726213	0.666046142578125	0.666015625	1.15081787109375E-06	7.66462676438096E-07	578732.4375	3.5200468119001E-05
2	425	108.541758725958	0.676116943359375	0.676055908203125	1.15936279296875E-06	7.83794064318499E-07	583127.125	3.53167961293366E-05
2	426	108.642466725704	0.686187744140625	0.686065673828125	1.16729736328125E-06	8.00842656190071E-07	587738.5625	3.54339535988402E-05
2	427	108.74317472545	0.696258544921875	0.69622802734375	1.1767578125E-06	8.19291756215534E-07	591649.375	3.55519841832574E-05
2	428	108.843882725196	0.706329345703125	0.7061767578125	1.185302734375E-06	8.370332125196E-07	595777.5625	3.56709242623765E-05
2	429	108.944590724941	0.716400146484375	0.71630859375	1.19354248046875E-06	8.54944687489478E-07	600153.4375	3.57907083525788E-05
2	430	109.045298724687	0.726470947265625	0.7264404296875	1.2017822265625E-06	8.7302316842397E-07	604469.3125	3.59113219019491E-05
2	431	109.146006724433	0.736541748046875	0.736419677734375	1.2091064453125E-06	8.90409694420669E-07	609061.125	3.60327212547418E-05
2	432	109.246714724179	0.746612548828125	0.74652099609375	1.2164306640625E-06	9.08091010387579E-07	613697.9375	3.61548554792535E-05
2	433	109.347422723924	0.756683349609375	0.7568359375	1.22406005859375E-06	9.26412610624539E-07	618299.6875	3.6277746403357E-05
2	434	109.44813072367	0.766754150390625	0.76690673828125	1.23016357421875E-06	9.43420729981881E-07	623418.5	3.64013249054551E-05
2	435	109.548838723416	0.776824951171875	0.77667236328125	1.23626708984375E-06	9.60174475039821E-07	628239.9375	3.65255182259716E-05
2	436	109.649546723162	0.786895751953125	0.7867431640625	1.2408447265625E-06	9.76226033344574E-07	634038.375	3.66502536053304E-05
2	437	109.750254722907	0.796966552734375	0.79742431640625	1.24542236328125E-06	9.93130129245401E-07	640284.25	3.677544373204E-05
2	438	109.850962722653	0.807037353515625	0.80718994140625	1.24908447265625E-06	1.0082484322993E-06	646225.25	3.69010522263125E-05
2	439	109.951670722399	0.817108154296875	0.81695556640625	1.25213623046875E-06	1.02293961390387E-06	652449.5	3.7026999052614E-05
2	440	110.052378722144	0.827178955078125	0.82763671875	1.25457763671875E-06	1.03833451703395E-06	659693.5625	3.71532223653048E-05
2	441	110.15308672189	0.837249755859375	0.83740234375	1.25640869140625E-06	1.05211950085504E-06	666504.75	3.72796603187453E-05
2	442	110.253794721636	0.847320556640625	0.8477783203125	1.25762939453125E-06	1.0661909755072E-06	674108.25	3.74062547052745E-05
2	443	110.354502721382	0.857391357421875	0.8575439453125	1.25885009765625E-06	1.07951927930117E-06	681212.125	3.75329691451043E-05
2	444	110.455210721127	0.867462158203125	0.86700439453125	1.26007080078125E-06	1.09248696844588E-06	688060.0625	3.76598072762135E-05
2	445	110.555918720873	0.877532958984375	0.877685546875	1.26068115234375E-06	1.10648159079574E-06	696199.5	3.7786736356793E-05
2	446	110.656626720619	0.887603759765625	0.88775634765625	1.26220703125E-06	1.12053226075659E-06	703336.5625	3.79137745767366E-05
2	447	110.757334720365	0.897674560546875	0.8978271484375	1.263427734375E-06	1.13433975457156E-06	710628	3.80409510398749E-05
2	448	110.85804272011	0.907745361328125	0.908203125	1.265869140625E-06	1.14966621822532E-06	717454.25	3.81683094019536E-05
2	449	110.958750719856	0.917816162109375	0.91766357421875	1.26800537109375E-06	1.16360229185375E-06	723706.375	3.82959005946759E-05
2	450	111.059458719602	0.927886962890625	0.92803955078125	1.27105712890625E-06	1.17959120871092E-06	730132.125	3.84237537218723E-05
2	451	111.160166719348	0.937957763671875	0.93841552734375	1.27410888671875E-06	1.19564356282353E-06	736526.9375	3.85519124392886E-05
2	452	111.260874719093	0.948028564453125	0.948486328125	1.27838134765625E-06	1.21252719509357E-06	741943.1875	3.86804385925643E-05
2	453	111.361582718839	0.958099365234375	0.95794677734375	1.282958984375E-06	1.22900632959499E-06	746669.875	3.88094122172333E-05
2	454	111.462290718585	0.968170166015625	0.96832275390625	1.28753662109375E-06	1.24675102597394E-06	752073.9375	3.89388478652108E-05
2	455	111.562998718331	0.978240966796875	0.97869873046875	1.29241943359375E-06	1.26488919249823E-06	757260.9375	3.90687600884121E-05
2	456	111.663706718076	0.988311767578125	0.98846435546875	1.29791259765625E-06	1.28294038859167E-06	761580.0625	3.91991925425828E-05
2	457	111.764414717822	0.998382568359375	0.99822998046875	1.30279541015625E-06	1.30048931623605E-06	766221.625	3.93301488657016E-05
2	458	111.865122717568	1.00845336914063	1.00799560546875	1.30859375E-06	1.31905676425959E-06	770289.1875	3.9461643609684E-05
2	459	111.965830717313	1.01852416992188	1.0186767578125	1.31378173828125E-06	1.3383188388616E-06	775377.5	3.9593691326445E-05
2	460	112.066538717059	1.02859497070313	1.02813720703125	1.319580078125E-06	1.35670939016563E-06	779139.6875	3.97262883780058E-05
2	461	112.167246716805	1.03866577148438	1.038818359375	1.324462890625E-06	1.37587630888447E-06	784331.875	3.9859427488409E-05
2	462	112.267954716551	1.04873657226563	1.04827880859375	1.329345703125E-06	1.3935248261987E-06	788567.5	3.99930577259511E-05
2	463	112.368662716296	1.05880737304688	1.05865478515625	1.334228515625E-06	1.41248733598331E-06	793458.375	4.01271790906321E-05
2	464	112.469370716042	1.06887817382813	1.0687255859375	1.33941650390625E-06	1.43146871778299E-06	797903.875	4.02618097723462E-05
2	465	112.570078715788	1.07894897460938	1.07879638671875	1.343994140625E-06	1.44989598993561E-06	802679.4375	4.03969279432204E-05
2	466	112.670786715534	1.08901977539063	1.08917236328125	1.34857177734375E-06	1.46882712215302E-06	807648.75	4.05325117753819E-05
2	467	112.771494715279	1.09909057617188	1.09893798828125	1.3525390625E-06	1.48635649566131E-06	812500	4.06685212510638E-05
2	468	112.872202715025	1.10916137695313	1.109619140625	1.35772705078125E-06	1.50655989727966E-06	817262.3125	4.0804996388033E-05
2	469	112.972910714771	1.11923217773438	1.11907958984375	1.3629150390625E-06	1.52521033669473E-06	821092.75	4.09419881179929E-05
2	470	113.073618714517	1.12930297851563	1.12945556640625	1.368408203125E-06	1.54555630160758E-06	825379.125	4.1079521906795E-05
2	471	113.174326714262	1.13937377929688	1.13922119140625	1.3739013671875E-06	1.56517751292995E-06	829187.0625	4.12176086683758E-05
2	472	113.275034714008	1.14944458007813	1.14959716796875	1.37939453125E-06	1.5857480093473E-06	833407.125	4.13562484027352E-05
2	473	113.375742713754	1.15951538085938	1.15966796875	1.38580322265625E-06	1.60707156737772E-06	836820.0625	4.14954884035978E-05
2	474	113.4764507135	1.16958618164063	1.16973876953125	1.39190673828125E-06	1.62816729698534E-06	840385.875	4.16353577747941E-05
2	475	113.577158713245	1.17965698242188	1.17950439453125	1.39923095703125E-06	1.65039898547548E-06	842966.25	4.17759001720697E-05
2	476	113.677866712991	1.18972778320313	1.1895751953125	1.4068603515625E-06	1.67356608926639E-06	845553.1875	4.19171992689371E-05
2	477	113.778574712737	1.19979858398438	1.199951171875	1.41510009765625E-06	1.69805105088017E-06	847962.0625	4.20592950831633E-05
2	478	113.879282712482	1.20986938476563	1.21002197265625	1.4239501953125E-06	1.72301099610195E-06	849764.25	4.22022530983668E-05
2	479	113.979990712228	1.21994018554688	1.21978759765625	1.43402099609375E-06	1.74920103290788E-06	850606.5	4.23461642640177E-05
2	480	114.080698711974	1.23001098632813	1.22955322265625	1.4447021484375E-06	1.77633808107203E-06	851077.375	4.24911195295863E-05
2	481	114.18140671172	1.24008178710938	1.23992919921875	1.4569091796875E-06	1.80646418357355E-06	851068.3125	4.26372280344367E-05
2	482	114.282114711465	1.25015258789063	1.25030517578125	1.4691162109375E-06	1.83684358034952E-06	851059.375	4.27845625381451E-05
2	483	114.382822711211	1.26022338867188	1.259765625	1.483154296875E-06	1.86842680705013E-06	849382.75	4.29332212661393E-05
2	484	114.483530710957	1.27029418945313	1.270751953125	1.49810791015625E-06	1.90372350061807E-06	848237.9375	4.30833424616139E-05
2	485	114.584238710703	1.28036499023438	1.28021240234375	1.51519775390625E-06	1.93977484741481E-06	844914.4375	4.32350716437213E-05
2	486	114.684946710448	1.29043579101563	1.28997802734375	1.533203125E-06	1.97779831978551E-06	841361.5	4.33885725215077E-05
2	487	114.785654710194	1.30050659179688	1.3006591796875	1.552734375E-06	2.0195782326482E-06	837657.25	4.3543961510295E-05
2	488	114.88636270994	1.31057739257813	1.31072998046875	1.57379150390625E-06	2.06281561077049E-06	832848.5625	4.37013950431719E-05
2	489	114.987070709686	1.32064819335938	1.3201904296875	1.59698486328125E-06	2.1083239971631E-06	826676.875	4.38610550190788E-05
2	490	115.087778709431	1.33071899414063	1.33087158203125	1.6217041015625E-06	2.15827981264738E-06	820662.4375	4.40231306129135E-05
2	491	115.188486709177	1.34078979492188	1.3409423828125	1.64825439453125E-06	2.21021423385537E-06	813553.0625	4.41877855337225E-05
2	492	115.289194708923	1.35086059570313	1.35040283203125	1.676025390625E-06	2.26330939767649E-06	805717.4375	4.43551762145944E-05
2	493	115.389902708669	1.36093139648438	1.36077880859375	1.705322265625E-06	2.32056640925293E-06	797959.9375	4.45254408987239E-05
2	494	115.490610708414	1.37100219726563	1.37115478515625	1.73553466796875E-06	2.37968652072595E-06	790047.5	4.46986996394116E-05
2	495	115.59131870816	1.38107299804688	1.38092041015625	1.7669677734375E-06	2.44004195337766E-06	781519.875	4.48750652140006E-05
2	496	115.692026707906	1.39114379882813	1.39129638671875	1.7999267578125E-06	2.50423158831836E-06	772973.875	4.50546722277068E-05
2	497	115.792734707651	1.40121459960938	1.40106201171875	1.83563232421875E-06	2.57183455687482E-06	763258.5625	4.52377389592584E-05
2	498	115.893442707397	1.41128540039063	1.4111328125	1.87652587890625E-06	2.64802724814217E-06	751992.1875	4.54246619483456E-05
2	499	115.994150707143	1.42135620117188	1.4208984375	1.9232177734375E-06	2.73269711215107E-06	738813.125	4.5615994167747E-05
2	500	116.094858706889	1.43142700195313	1.4312744140625	1.97845458984375E-06	2.83171129922266E-06	723430.5625	4.58124559372663E-05
2	501	116.195566706634	1.44149780273438	1.44134521484375	2.04315185546875E-06	2.94488722829556E-06	705451.8125	4.60149603895843E-05
2	502	116.29627470638	1.45156860351563	1.45172119140625	2.11883544921875E-06	3.07595837512054E-06	685150.5	4.62245334347244E-05
2	503	116.396982706126	1.46163940429688	1.46148681640625	2.20855712890625E-06	3.22777714245603E-06	661738.3125	4.64424374513328E-05
2	504	116.497690705872	1.47171020507813	1.4715576171875	2.3138427734375E-06	3.40495284945064E-06	635979.9375	4.66701567347627E-05
2	505	116.598398705617	1.48178100585938	1.4813232421875	2.43438720703125E-06	3.60611420546775E-06	608499.4375	4.69092483399436E-05
2	506	116.699106705363	1.49185180664063	1.49169921875	2.5689697265625E-06	3.83213000532123E-06	580660.5	4.71611892862711E-05
2	507	116.799814705109	1.50192260742188	1.5020751953125	2.7099609375E-06	4.07056495532743E-06	554279.3125	4.74270018457901E-05
2	508	116.900522704855	1.49185180664063	1.49200439453125	2.31781005859375E-06	3.45818261848763E-06	643713	4.76801724289544E-05
2	509	117.0012307046	1.48178100585938	1.48162841796875	2.0306396484375E-06	3.00865326607891E-06	729636.375	4.78991350973956E-05
2	510	117.101938704346	1.47171020507813	1.47216796875	1.806640625E-06	2.65967855739291E-06	814864.875	4.80923554277979E-05
2	511	117.202646704092	1.46163940429688	1.4617919921875	1.6278076171875E-06	2.37951599046937E-06	898012.75	4.82652940263506E-05
2	512	117.303354703837	1.45156860351563	1.45172119140625	1.4837646484375E-06	2.15401269088034E-06	978403.9375	4.84219744976144E-05
2	513	117.404062703583	1.44149780273438	1.441650390625	1.3671875E-06	1.97100621335267E-06	1054464.375	4.85655327793211E-05
2	514	117.504770703329	1.43142700195313	1.4312744140625	1.2738037109375E-06	1.82316261998494E-06	1123622.375	4.86985154566355E-05
2	515	117.605478703075	1.42135620117188	1.42120361328125	1.197509765625E-06	1.70190514836577E-06	1186799.25	4.88229561597109E-05
2	516	117.70618670282	1.41128540039063	1.4111328125	1.13555908203125E-06	1.60242461788584E-06	1242676.75	4.89404337713495E-05
2	517	117.806894702566	1.40121459960938	1.40106201171875	1.08489990234375E-06	1.52001200603991E-06	1291420.625	4.90522434120066E-05
2	518	117.907602702312	1.39114379882813	1.3909912109375	1.04339599609375E-06	1.45135459206358E-06	1333138.375	4.9159410991706E-05
2	519	118.008310702058	1.38107299804688	1.38092041015625	1.00860595703125E-06	1.39280462008173E-06	1369137.625	4.92627405037638E-05
2	520	118.109018701803	1.37100219726563	1.370849609375	9.79003906250001E-07	1.34206709390128E-06	1400249.5	4.93628249387257E-05
2	521	118.209726701549	1.36093139648438	1.36077880859375	9.5367431640625E-07	1.29773980006576E-06	1426880	4.94601408718154E-05
2	522	118.310434701295	1.35086059570313	1.3507080078125	9.3109130859375E-07	1.25763244795962E-06	1450672	4.95550484629348E-05
2	523	118.411142701041	1.34078979492188	1.3409423828125	9.1094970703125E-07	1.22153096526745E-06	1472026.875	4.96478023706004E-05
2	524	118.511850700786	1.33071899414063	1.33087158203125	8.93554687500001E-07	1.1892065003849E-06	1489412.625	4.97386645292863E-05
2	525	118.612558700532	1.32064819335938	1.32110595703125	8.770751953125E-07	1.15870921035821E-06	1506263	4.98278241138905E-05
2	526	118.713266700278	1.31057739257813	1.31072998046875	8.62731933593749E-07	1.13080852770508E-06	1519278.5	4.99154302815441E-05
2	527	118.813974700024	1.30050659179688	1.30035400390625	8.49609375E-07	1.10479288650822E-06	1530531.625	5.0001654017251E-05
2	528	118.914682699769	1.29043579101563	1.29058837890625	8.380126953125E-07	1.08152937627892E-06	1540058.25	5.0086629926227E-05
2	529	119.015390699515	1.28036499023438	1.280517578125	8.26416015625001E-07	1.0582401728243E-06	1549483	5.01704416819848E-05
2	530	119.116098699261	1.27029418945313	1.27044677734375	8.15734863281251E-07	1.03634772585792E-06	1557426.125	5.02531293022912E-05
2	531	119.216806699006	1.26022338867188	1.26068115234375	8.056640625E-07	1.01568548416253E-06	1564772.75	5.03347764606588E-05
2	532	119.317514698752	1.25015258789063	1.24969482421875	7.95898437500001E-07	9.946301133823E-07	1570168.75	5.04154195368756E-05
2	533	119.418222698498	1.24008178710938	1.23992919921875	7.87353515625E-07	9.76262526819482E-07	1574806.25	5.04951422044542E-05
2	534	119.518930698244	1.23001098632813	1.2298583984375	7.7880859375E-07	9.57824227043602E-07	1579153.625	5.05740063090343E-05
2	535	119.619638697989	1.21994018554688	1.21978759765625	7.708740234375E-07	9.40302584240271E-07	1582343.625	5.06520373164676E-05
2	536	119.720346697735	1.20986938476563	1.20941162109375	7.63549804687499E-07	9.23446009437612E-07	1583932.875	5.07293043483514E-05
2	537	119.821054697481	1.19979858398438	1.199951171875	7.568359375E-07	9.08166100543895E-07	1585484	5.08058583363891E-05
2	538	119.921762697227	1.18972778320313	1.18927001953125	7.4981689453125E-07	8.91734714514314E-07	1586080.625	5.08817247464322E-05
2	539	120.022470696972	1.17965698242188	1.17919921875	7.43408203125E-07	8.76626359058719E-07	1586207	5.09569144924171E-05
2	540	120.123178696718	1.16958618164063	1.16973876953125	7.3699951171875E-07	8.62096840137383E-07	1587163.625	5.10314603161532E-05
2	541	120.223886696464	1.15951538085938	1.1590576171875	7.31201171875E-07	8.47504281864531E-07	1585141.875	5.1105391321471E-05
2	542	120.32459469621	1.14944458007813	1.1492919921875	7.244873046875E-07	8.32647401693976E-07	1586352.25	5.11786893184762E-05
2	543	120.425302695955	1.13937377929688	1.1395263671875	7.1868896484375E-07	8.18965020243922E-07	1585562.625	5.12513579451479E-05
2	544	120.526010695701	1.12930297851563	1.129150390625	7.11975097656251E-07	8.03926923254039E-07	1585940.875	5.13234008394647E-05
2	545	120.626718695447	1.11923217773438	1.11907958984375	7.0556640625E-07	7.89584930771525E-07	1586072.75	5.13947779836599E-05
2	546	120.727426695193	1.10916137695313	1.1090087890625	6.99462890624999E-07	7.75710475409142E-07	1585514.875	5.14655257575214E-05
2	547	120.828134694938	1.09909057617188	1.0992431640625	6.9244384765625E-07	7.61164187679242E-07	1587483.5	5.15356150572188E-05
2	548	120.928842694684	1.08901977539063	1.08978271484375	6.86035156250001E-07	7.47629258057714E-07	1588523.125	5.16050276928581E-05
2	549	121.02955069443	1.07894897460938	1.0784912109375	6.793212890625E-07	7.32642035927711E-07	1587601.125	5.16737782163545E-05
2	550	121.130258694175	1.06887817382813	1.0693359375	6.72302246093751E-07	7.18916965070093E-07	1590558.375	5.17418375238776E-05
2	551	121.230966693921	1.05880737304688	1.058349609375	6.64672851562501E-07	7.0345623726098E-07	1592286.625	5.18091583217029E-05
2	552	121.331674693667	1.04873657226563	1.04888916015625	6.573486328125E-07	6.89485830207559E-07	1595636.125	5.18757296958938E-05
2	553	121.432382693413	1.03866577148438	1.03851318359375	6.4971923828125E-07	6.74741954753699E-07	1598403.125	5.19415443704929E-05
2	554	121.533090693158	1.02859497070313	1.0284423828125	6.41784667968751E-07	6.60038551814068E-07	1602472.75	5.20065768796485E-05
2	555	121.633798692904	1.01852416992188	1.01806640625	6.33850097656249E-07	6.45301497570472E-07	1606162.75	5.20708090334665E-05
2	556	121.73450669265	1.00845336914063	1.00830078125	6.26525878906251E-07	6.31726550182066E-07	1609352.125	5.2134277211735E-05
2	557	121.835214692396	0.998382568359375	0.99853515625	6.18896484375001E-07	6.17989883267001E-07	1613412.25	5.21969886904117E-05
2	558	121.935922692141	0.988311767578125	0.9881591796875	6.10961914062499E-07	6.0372758525773E-07	1617382.75	5.2258914365666E-05
2	559	122.036630691887	0.978240966796875	0.9783935546875	6.03637695312501E-07	5.90595220728574E-07	1620829.25	5.23200760653708E-05
2	560	122.137338691633	0.968170166015625	0.968017578125	5.9661865234375E-07	5.77537321078125E-07	1622506.5	5.2380513807293E-05
2	561	122.238046691379	0.958099365234375	0.95794677734375	5.8929443359375E-07	5.64512674827711E-07	1625582.625	5.24402275914326E-05
2	562	122.338754691124	0.948028564453125	0.948486328125	5.816650390625E-07	5.51701305084862E-07	1630640.125	5.2499191951938E-05
2	563	122.43946269087	0.937957763671875	0.9381103515625	5.7586669921875E-07	5.40226494649687E-07	1629040.875	5.25574796483852E-05
2	564	122.540170690616	0.927886962890625	0.92864990234375	5.6884765625E-07	5.2826032970188E-07	1632510.75	5.26151197846048E-05
2	565	122.640878690362	0.917816162109375	0.91766357421875	5.615234375E-07	5.15289627855964E-07	1634239.125	5.26720359630417E-05
2	566	122.741586690107	0.907745361328125	0.9075927734375	5.54809570312501E-07	5.03541173202393E-07	1635863.625	5.27282500115689E-05
2	567	122.842294689853	0.897674560546875	0.89752197265625	5.474853515625E-07	4.91380149014731E-07	1639353.375	5.27837546542287E-05
2	568	122.943002689599	0.887603759765625	0.8880615234375	5.3985595703125E-07	4.79425295907276E-07	1644997.25	5.28385062352754E-05
2	569	123.043710689344	0.877532958984375	0.8770751953125	5.3131103515625E-07	4.65999704601927E-07	1650775.5	5.28924429090694E-05
2	570	123.14441868909	0.867462158203125	0.86822509765625	5.22460937499999E-07	4.53613694162414E-07	1661799.125	5.29455064679496E-05
2	571	123.245126688836	0.857391357421875	0.85723876953125	5.1300048828125E-07	4.39763908843815E-07	1671029.125	5.29976459802128E-05
2	572	123.345834688582	0.847320556640625	0.84716796875	5.02624511718749E-07	4.25807400006306E-07	1685488.75	5.30487850483041E-05
2	573	123.446542688327	0.837249755859375	0.83740234375	4.91943359374999E-07	4.1195451672138E-07	1702233.25	5.30988654645626E-05
2	574	123.547250688073	0.827178955078125	0.82763671875	4.81262207031249E-07	3.98310248783673E-07	1719721	5.31478726770729E-05
2	575	123.647958687819	0.817108154296875	0.8172607421875	4.70886230468751E-07	3.84836823741352E-07	1735580.125	5.31958139617927E-05
2	576	123.748666687565	0.807037353515625	0.80718994140625	4.59899902343749E-07	3.71226576589834E-07	1755142.75	5.32426856807433E-05
2	577	123.84937468731	0.796966552734375	0.79681396484375	4.49218749999999E-07	3.57943747530953E-07	1773777.25	5.32884623680729E-05
2	578	123.950082687056	0.786895751953125	0.78704833984375	4.3914794921875E-07	3.45630638776129E-07	1792216.875	5.33331949554849E-05
2	579	124.050790686802	0.776824951171875	0.7769775390625	4.28466796875E-07	3.3290908163508E-07	1813390.375	5.33768834429793E-05
2	580	124.151498686548	0.766754150390625	0.7672119140625	4.19006347656251E-07	3.21466643526946E-07	1831027	5.34195569343865E-05
2	581	124.252206686293	0.756683349609375	0.7568359375	4.1046142578125E-07	3.10651955715002E-07	1843866.25	5.34613245690707E-05
2	582	124.352914686039	0.746612548828125	0.746551513671875	4.010009765625E-07	2.99367883371815E-07	1861720	5.35021827090532E-05
2	583	124.453622685785	0.736541748046875	0.736419677734375	3.93066406250001E-07	2.89461809188651E-07	1873525	5.35421677341219E-05
2	584	124.554330685531	0.726470947265625	0.726409912109375	3.85437011718751E-07	2.7998527230011E-07	1884639.75	5.35813705937471E-05
2	585	124.655038685276	0.716400146484375	0.716339111328125	3.77197265625E-07	2.70201155672112E-07	1899110	5.3619769460056E-05
2	586	124.755746685022	0.706329345703125	0.706268310546875	3.7109375E-07	2.62091731428882E-07	1903207.375	5.36574516445398E-05
2	587	124.856454684768	0.696258544921875	0.6961669921875	3.6468505859375E-07	2.53881694334268E-07	1908954.125	5.36945008207113E-05
2	588	124.957162684513	0.686187744140625	0.68609619140625	3.582763671875E-07	2.45812060484241E-07	1914991.5	5.3730902436655E-05
2	589	125.057870684259	0.676116943359375	0.67608642578125	3.521728515625E-07	2.38099275406967E-07	1919757.5	5.3766678320244E-05
2	590	125.158578684005	0.666046142578125	0.66595458984375	3.46984863281249E-07	2.31076157319876E-07	1919261.25	5.38018830411602E-05
2	591	125.259286683751	0.655975341796875	0.6558837890625	3.41796875E-07	2.24179018459836E-07	1918928.625	5.3836567531107E-05
2	592	125.359994683496	0.645904541015625	0.645843505859375	3.369140625E-07	2.17593751017375E-07	1916938.5	5.38707427040208E-05
2	593	125.460702683242	0.635833740234375	0.635772705078125	3.32031250000001E-07	2.11096406133038E-07	1914797.75	5.39044267497957E-05
2	594	125.561410682988	0.625762939453125	0.625701904296875	3.27453613281251E-07	2.04888337407283E-07	1910811	5.39376342203468E-05
2	595	125.662118682734	0.615692138671875	0.615631103515625	3.22875976562501E-07	1.98772482917775E-07	1906710.875	5.39703796675894E-05
2	596	125.762826682479	0.605621337890625	0.6055908203125	3.18603515625E-07	1.92943346633001E-07	1900766.375	5.40026812814176E-05
2	597	125.863534682225	0.595550537109375	0.595550537109375	3.14941406249999E-07	1.87563514941758E-07	1890988.5	5.4034582717577E-05
2	598	125.964242681971	0.585479736328125	0.585479736328125	3.1097412109375E-07	1.82069044285527E-07	1882728.25	5.40660985279828E-05
2	599	126.064950681717	0.575408935546875	0.575347900390625	3.07312011718749E-07	1.76811312257996E-07	1872194.625	5.40972323506139E-05
2	600	126.165658681462	0.565338134765625	0.565277099609375	3.033447265625E-07	1.71473814702949E-07	1863481	5.41279805474915E-05
2	601	126.266366681208	0.555267333984375	0.55523681640625	3.0029296875E-07	1.66733698847565E-07	1848983.875	5.41583794984035E-05
2	602	126.367074680954	0.545196533203125	0.545166015625	2.96630859374999E-07	1.61713060720103E-07	1837860.125	5.41884364793077E-05
2	603	126.4677826807	0.535125732421875	0.53509521484375	2.9327392578125E-07	1.56929473860146E-07	1824557.75	5.42181405762676E-05
2	604	126.568490680445	0.525054931640625	0.525054931640625	2.9022216796875E-07	1.5238256878547E-07	1809148.375	5.42475208931137E-05
2	605	126.669198680191	0.514984130859375	0.51495361328125	2.8656005859375E-07	1.4756513166958E-07	1797018.25	5.42765628779307E-05
2	606	126.769906679937	0.504913330078125	0.504852294921875	2.8411865234375E-07	1.43437944188918E-07	1776906.625	5.43052992725279E-05
2	607	126.870614679682	0.494842529296875	0.4947509765625	2.8106689453125E-07	1.39058116133128E-07	1760260.625	5.43337591807358E-05
2	608	126.971322679428	0.484771728515625	0.4847412109375	2.777099609375E-07	1.34617451408303E-07	1745494.625	5.43618953088298E-05
2	609	127.072030679174	0.474700927734375	0.474700927734375	2.74658203125E-07	1.3038049928582E-07	1728333.375	5.43897112947889E-05
2	610	127.17273867892	0.464630126953125	0.464599609375	2.7191162109375E-07	1.26330021998911E-07	1708642.125	5.44172326044645E-05
2	611	127.273446678665	0.454559326171875	0.45452880859375	2.6885986328125E-07	1.22204554031669E-07	1690579	5.44444628758356E-05
2	612	127.374154678411	0.444488525390625	0.44451904296875	2.655029296875E-07	1.18021112882616E-07	1674252.875	5.44713693670928E-05
2	613	127.474862678157	0.434417724609375	0.434326171875	2.6214599609375E-07	1.13856863492856E-07	1656810.25	5.4497937526321E-05
2	614	127.575570677903	0.424346923828125	0.424285888671875	2.593994140625E-07	1.10059502844706E-07	1635647.125	5.45242000953294E-05
2	615	127.676278677648	0.414276123046875	0.414276123046875	2.55432128906249E-07	1.05819431439613E-07	1621863.75	5.45501243323088E-05
2	616	127.776986677394	0.404205322265625	0.4041748046875	2.5146484375E-07	1.0163574870603E-07	1607281.625	5.45756483916193E-05
2	617	127.87769467714	0.394134521484375	0.394073486328125	2.47802734374999E-07	9.76524816564961E-08	1590271	5.46007904631551E-05
2	618	127.978402676886	0.384063720703125	0.384033203125	2.44750976562499E-07	9.39924973408779E-08	1569077.375	5.46255905646831E-05
2	619	128.079110676631	0.373992919921875	0.373931884765625	2.42004394531251E-07	9.04931525269603E-08	1545145.125	5.46500996279065E-05
2	620	128.179818676377	0.363922119140625	0.36395263671875	2.392578125E-07	8.70785115125727E-08	1521173.5	5.46743358427193E-05
2	621	128.280526676123	0.353851318359375	0.353851318359375	2.3651123046875E-07	8.36898124134677E-08	1496129	5.4698291933164E-05
2	622	128.381234675869	0.343780517578125	0.343780517578125	2.337646484375E-07	8.03637263402379E-08	1470626.75	5.47219715372194E-05
2	623	128.481942675614	0.333709716796875	0.333740234375	2.31323242187501E-07	7.72018751149517E-08	1442744.125	5.47453892068006E-05
2	624	128.58265067536	0.323638916015625	0.323638916015625	2.28271484375001E-07	7.38775298714245E-08	1417780.75	5.47685340279713E-05
2	625	128.683358675106	0.313568115234375	0.31353759765625	2.25830078125E-07	7.08062231069562E-08	1388378.375	5.47913987247739E-05
2	626	128.784066674851	0.303497314453125	0.303466796875	2.22167968750001E-07	6.7420600657897E-08	1365934	5.48139578313567E-05
2	627	128.884774674597	0.293426513671875	0.293426513671875	2.20642089843751E-07	6.47422382371587E-08	1329875.625	5.48362550034653E-05
2	628	128.985482674343	0.283355712890625	0.28338623046875	2.1697998046875E-07	6.14891391137462E-08	1306047.875	5.48582902410999E-05
2	629	129.086190674089	0.273284912109375	0.27325439453125	2.14538574218751E-07	5.86236090782677E-08	1273684.25	5.48800198885147E-05
2	630	129.186898673834	0.263214111328125	0.26318359375	2.11181640624999E-07	5.55795409695747E-08	1246242.875	5.4901454859646E-05
2	631	129.28760667358	0.253143310546875	0.253173828125	2.0751953125E-07	5.25385104310772E-08	1220000.125	5.49225405848119E-05
2	632	129.388314673326	0.243072509765625	0.243072509765625	2.03857421875001E-07	4.95521312871006E-08	1192365.375	5.49432552361395E-05
2	633	129.489022673072	0.233001708984375	0.233001708984375	1.9989013671875E-07	4.6574744061445E-08	1165648.875	5.49635842617135E-05
2	634	129.589730672817	0.222930908203125	0.222930908203125	1.953125E-07	4.35411919852413E-08	1141406.25	5.49834840057883E-05
2	635	129.690438672563	0.212860107421875	0.212860107421875	1.9073486328125E-07	4.05998399344298E-08	1116000.125	5.50029217265546E-05
2	636	129.791146672309	0.202789306640625	0.20281982421875	1.85546875000001E-07	3.76325814954726E-08	1093092.125	5.50218719581608E-05
2	637	129.891854672055	0.192718505859375	0.192718505859375	1.7974853515625E-07	3.46408661755504E-08	1072156.25	5.50402655790094E-05
2	638	129.9925626718	0.182647705078125	0.182647705078125	1.73339843750001E-07	3.16601251881821E-08	1053697.25	5.50580443814397E-05
2	639	130.093270671546	0.172576904296875	0.172576904296875	1.65710449218751E-07	2.85977961311801E-08	1041436.5	5.50751174159814E-05
2	640	130.193978671292	0.162506103515625	0.16253662109375	1.56249999999999E-07	2.53963463592299E-08	1040234.375	5.50913282495458E-05
2	641	130.294686671038	0.152435302734375	0.152435302734375	1.4495849609375E-07	2.20967919517534E-08	1051579	5.51064949831925E-05
2	642	130.395394670783	0.142364501953125	0.14239501953125	1.30310058593749E-07	1.85555038001439E-08	1092740.125	5.51203556824476E-05
2	643	130.496102670529	0.132293701171875	0.132354736328125	1.11083984375E-07	1.47024916685723E-08	1191483.5	5.5132510169642E-05
2	644	130.596810670275	0.122222900390625	0.122283935546875	8.63647460937506E-08	1.05610205025641E-08	1415901.125	5.51424527657218E-05
2	645	130.69751867002	0.112152099609375	0.1121826171875	5.340576171875E-08	5.99119776012458E-09	2100571.5	5.51494922547136E-05
2	646	130.798226669766	0.102081298828125	0.102081298828125	8.54492187500056E-09	8.7227675082957E-10	11946428	5.51526100025512E-05
2	647	130.898934669512	0.092010498046875	0.09197998046875	-5.24902343749994E-08	-4.82805040391554E-09	-1752325.625	5.51503981114365E-05
2	648	130.999642669258	0.081939697265625	0.08197021484375	-1.34887695312499E-07	-1.10567723865529E-08	-607692.375	5.51409648323897E-05
2	649	131.100350669003	0.071868896484375	0.071929931640625	-2.459716796875E-07	-1.76927255068904E-08	-292431.75	5.51217854081187E-05
2	650	131.201058668749	0.061798095703125	0.06182861328125	-3.89404296875E-07	-2.40763267100874E-08	-158777.4375	5.50897930224892E-05
2	651	131.301766668495	0.051727294921875	0.05181884765625	-5.706787109375E-07	-2.95719129184135E-08	-90802.140625	5.50414479221217E-05
2	652	131.402474668241	0.041656494140625	0.041741943359375	-7.8765869140625E-07	-3.28784039993479E-08	-52994.96484375	5.49730502825696E-05
2	653	131.503182667986	0.031585693359375	0.031658935546875	-1.03302001953125E-06	-3.27043139236594E-08	-30646.97265625	5.48813732166309E-05
2	654	131.603890667732	0.021514892578125	0.0215911865234375	-1.28570556640625E-06	-2.77599063736034E-08	-16793.259765625	5.47646159247961E-05
2	655	131.704598667478	0.011444091796875	0.0115386962890625	-1.5240478515625E-06	-1.75855241479894E-08	-7571.0859375	5.46231312910095E-05
2	656	131.805306667224	0.001373291015625	0.00145263671875	-1.72210693359375E-06	-2.50159559733731E-09	-843.52294921875	5.44596769032069E-05
2	657	131.906014666969	-0.008697509765625	-0.0086090087890625	-1.86065673828125E-06	1.60184097097726E-08	4626.8662109375	5.42792695341632E-05
2	658	132.006722666715	-0.018768310546875	-0.0186431884765625	-1.93450927734375E-06	3.60654226483348E-08	9637.1669921875	5.40881665074266E-05
2	659	132.107430666461	-0.028839111328125	-0.0287139892578125	-1.95098876953125E-06	5.60206707689304E-08	14717.6611328125	5.38925160071813E-05
2	660	132.208138666207	-0.038909912109375	-0.038787841796875	-1.92352294921875E-06	7.46093036241291E-08	20165.001953125	5.36974184797145E-05
2	661	132.308846665952	-0.048980712890625	-0.04884033203125	-1.86676025390625E-06	9.11731845576469E-08	26163.154296875	5.35065628355369E-05
2	662	132.409554665698	-0.059051513671875	-0.058990478515625	-1.79595947265625E-06	1.05944508277389E-07	32846.21875	5.33221318619326E-05
2	663	132.510262665444	-0.069122314453125	-0.069061279296875	-1.719970703125E-06	1.18783376024112E-07	40152.58984375	5.31450896232855E-05
2	664	132.610970665189	-0.079193115234375	-0.07916259765625	-1.64581298828125E-06	1.30286835542393E-07	48099.38671875	5.29756107425783E-05
2	665	132.711678664935	-0.089263916015625	-0.0892333984375	-1.57684326171875E-06	1.40707086870862E-07	56589.8984375	5.28133350599092E-05
2	666	132.812386664681	-0.099334716796875	-0.099273681640625	-1.51458740234375E-06	1.50358658856931E-07	65545.0390625	5.26576695847325E-05
2	667	132.913094664427	-0.109405517578125	-0.109344482421875	-1.4599609375E-06	1.59638673835616E-07	74895.484375	5.25078903592657E-05
2	668	133.013802664172	-0.119476318359375	-0.11944580078125	-1.41143798828125E-06	1.68590347016107E-07	84627.0234375	5.23633025295567E-05
2	669	133.114510663918	-0.129547119140625	-0.129486083984375	-1.36993408203125E-06	1.77387391886441E-07	94519.9453125	5.22232512594201E-05
2	670	133.215218663664	-0.139617919921875	-0.139556884765625	-1.3348388671875E-06	1.86285959102861E-07	104549.609375	5.20870526088402E-05
2	671	133.31592666341	-0.149688720703125	-0.149566650390625	-1.3055419921875E-06	1.95265542402012E-07	114562.875	5.19540990353562E-05
2	672	133.416634663155	-0.159759521484375	-0.15966796875	-1.280517578125E-06	2.0445762061172E-07	124690.1875	5.18238812219352E-05
2	673	133.517342662901	-0.169830322265625	-0.169708251953125	-1.25946044921875E-06	2.13740833032716E-07	134746.796875	5.1695984438993E-05
2	674	133.618050662647	-0.179901123046875	-0.17974853515625	-1.24267578125E-06	2.23369141849616E-07	144646.375	5.1569990318967E-05
2	675	133.718758662393	-0.189971923828125	-0.18975830078125	-1.2298583984375E-06	2.33375843095018E-07	154292.796875	5.14454877702519E-05
2	676	133.819466662138	-0.200042724609375	-0.199951171875	-1.2200927734375E-06	2.43958965029378E-07	163881.953125	5.13221239089034E-05
2	677	133.920174661884	-0.189971923828125	-0.1898193359375	-1.05194091796875E-06	1.99678723333818E-07	180446.765625	5.1207716751378E-05
