Potential - OCP -0.0358119590609681 V
Time (s)	WE(1).Potential (V)
6.69531498309595	-0.0357666015625
6.79531498284348	-0.0357696533203125
6.895314982591	-0.0357696533203125
6.99531498233853	-0.0357696533203125
7.09531498208605	-0.0357696533203125
7.19531498183358	-0.035772705078125
7.2953149815811	-0.035772705078125
7.39531498132862	-0.0357757568359375
7.49531498107615	-0.0357757568359375
7.59531498082367	-0.03577880859375
7.6953149805712	-0.0357818603515625
7.79531498031872	-0.0357818603515625
7.89531498006625	-0.0357818603515625
7.99531497981377	-0.035784912109375
8.09531497956129	-0.035784912109375
8.19531497930882	-0.0357879638671875
8.29531497905634	-0.035791015625
8.39531497880387	-0.0357879638671875
8.49531497855139	-0.035791015625
8.59531497829892	-0.035791015625
8.69531497804644	-0.0357879638671875
8.79531497779396	-0.035791015625
8.89531497754149	-0.0357940673828125
8.99531497728901	-0.035791015625
9.09531497703654	-0.0357940673828125
9.19531497678406	-0.0357940673828125
9.29531497653159	-0.035791015625
9.39531497627911	-0.0357879638671875
9.49531497602663	-0.0357879638671875
9.59531497577416	-0.035784912109375
9.69531497552168	-0.035784912109375
9.79531497526921	-0.0357818603515625
9.89531497501673	-0.03577880859375
9.99531497476426	-0.0357757568359375
10.0953149745118	-0.035772705078125
10.1953149742593	-0.0357696533203125
10.2953149740068	-0.0357666015625
10.3953149737544	-0.0357635498046875
10.4953149735019	-0.035760498046875
10.5953149732494	-0.035760498046875
10.6953149729969	-0.0357574462890625
10.7953149727444	-0.03575439453125
10.895314972492	-0.03575439453125
10.9953149722395	-0.03575439453125
11.095314971987	-0.0357574462890625
11.1953149717345	-0.035760498046875
11.2953149714821	-0.0357666015625
11.3953149712296	-0.035772705078125
11.4953149709771	-0.03577880859375
11.5953149707246	-0.0357879638671875
11.6953149704722	-0.0358001708984375
11.7953149702197	-0.035809326171875
11.8953149699672	-0.035821533203125
11.9953149697147	-0.0358367919921875
12.0953149694623	-0.0358489990234375
12.1953149692098	-0.0358642578125
12.2953149689573	-0.0358795166015625
12.3953149687048	-0.035894775390625
12.4953149684524	-0.0359100341796875
12.5953149681999	-0.03592529296875
12.6953149679474	-0.0359405517578125
12.7953149676949	-0.035955810546875
12.8953149674425	-0.0359710693359375
12.99531496719	-0.035986328125
13.0953149669375	-0.036004638671875
13.195314966685	-0.0360198974609375
13.2953149664326	-0.0360321044921875
13.3953149661801	-0.03604736328125
13.4953149659276	-0.0360626220703125
13.5953149656751	-0.0360748291015625
13.6953149654227	-0.036090087890625
13.7953149651702	-0.036102294921875
13.8953149649177	-0.036114501953125
13.9953149646652	-0.036126708984375
14.0953149644128	-0.036138916015625
14.1953149641603	-0.0361480712890625
14.2953149639078	-0.0361572265625
14.3953149636553	-0.03616943359375
14.4953149634028	-0.0361785888671875
14.5953149631504	-0.0361846923828125
14.6953149628979	-0.03619384765625
14.7953149626454	-0.036199951171875
14.8953149623929	-0.0362091064453125
14.9953149621405	-0.0362152099609375
15.095314961888	-0.036224365234375
15.1953149616355	-0.03623046875
15.295314961383	-0.036236572265625
15.3953149611306	-0.03624267578125
15.4953149608781	-0.036248779296875
15.5953149606256	-0.0362548828125
15.6953149603731	-0.0362579345703125
15.7953149601207	-0.0362640380859375
15.8953149598682	-0.03626708984375
15.9953149596157	-0.0362701416015625
16.0953149593632	-0.036273193359375
16.1953149591108	-0.0362762451171875
16.2953149588583	-0.0362762451171875
16.3953149586058	-0.036279296875
16.4953149583533	-0.036279296875
16.5953149581009	-0.036279296875
16.6953149578484	-0.0362762451171875
16.7953149575959	-0.0362762451171875
16.8953149573434	-0.0362701416015625
16.995314957091	-0.0362701416015625
17.0953149568385	-0.0362640380859375
17.195314956586	-0.036260986328125
17.2953149563335	-0.0362548828125
17.3953149560811	-0.036248779296875
17.4953149558286	-0.0362457275390625
17.5953149555761	-0.0362396240234375
17.6953149553236	-0.036236572265625
17.7953149550711	-0.03623046875
17.8953149548187	-0.036224365234375
17.9953149545662	-0.0362213134765625
18.0953149543137	-0.0362152099609375
18.1953149540612	-0.036212158203125
18.2953149538088	-0.0362091064453125
18.3953149535563	-0.0362030029296875
18.4953149533038	-0.036199951171875
18.5953149530513	-0.03619384765625
18.6953149527989	-0.0361907958984375
18.7953149525464	-0.0361846923828125
18.8953149522939	-0.036181640625
18.9953149520414	-0.036175537109375
19.095314951789	-0.03616943359375
19.1953149515365	-0.0361663818359375
19.295314951284	-0.0361602783203125
19.3953149510315	-0.0361541748046875
19.4953149507791	-0.0361480712890625
19.5953149505266	-0.0361419677734375
19.6953149502741	-0.0361328125
19.7953149500216	-0.036126708984375
19.8953149497692	-0.0361175537109375
19.9953149495167	-0.0361083984375
20.0953149492642	-0.0360992431640625
20.1953149490117	-0.036090087890625
20.2953149487593	-0.0360809326171875
20.3953149485068	-0.03607177734375
20.4953149482543	-0.0360595703125
20.5953149480018	-0.03604736328125
20.6953149477494	-0.03603515625
20.7953149474969	-0.03602294921875
20.8953149472444	-0.0360137939453125
20.9953149469919	-0.0360015869140625
21.0953149467394	-0.0359893798828125
21.195314946487	-0.03597412109375
21.2953149462345	-0.0359619140625
21.395314945982	-0.0359466552734375
21.4953149457295	-0.0359344482421875
21.5953149454771	-0.035919189453125
21.6953149452246	-0.0359039306640625
21.7953149449721	-0.0358917236328125
21.8953149447196	-0.03587646484375
21.9953149444672	-0.0358612060546875
22.0953149442147	-0.0358489990234375
22.1953149439622	-0.035833740234375
22.2953149437097	-0.0358184814453125
22.3953149434573	-0.0358062744140625
22.4953149432048	-0.0357940673828125
22.5953149429523	-0.03577880859375
22.6953149426998	-0.0357666015625
22.7953149424474	-0.03575439453125
22.8953149421949	-0.0357391357421875
22.9953149419424	-0.0357269287109375
23.0953149416899	-0.0357177734375
23.1953149414375	-0.0357086181640625
23.295314941185	-0.035699462890625
23.3953149409325	-0.035687255859375
23.49531494068	-0.035675048828125
23.5953149404276	-0.035662841796875
23.6953149401751	-0.0356536865234375
23.7953149399226	-0.0356414794921875
23.8953149396701	-0.03563232421875
23.9953149394177	-0.0356231689453125
24.0953149391652	-0.0356170654296875
24.1953149389127	-0.03560791015625
24.2953149386602	-0.035601806640625
24.3953149384078	-0.0355926513671875
24.4953149381553	-0.0355865478515625
24.5953149379028	-0.0355804443359375
24.6953149376503	-0.0355743408203125
24.7953149373978	-0.0355712890625
24.8953149371454	-0.035565185546875
24.9953149368929	-0.03555908203125
25.0953149366404	-0.0355560302734375
25.1953149363879	-0.035552978515625
25.2953149361355	-0.035552978515625
25.395314935883	-0.0355499267578125
25.4953149356305	-0.0355499267578125
25.595314935378	-0.0355499267578125
25.6953149351256	-0.0355499267578125
25.7953149348731	-0.0355499267578125
25.8953149346206	-0.0355499267578125
25.9953149343681	-0.035552978515625
26.0953149341157	-0.035552978515625
26.1953149338632	-0.0355560302734375
26.2953149336107	-0.0355621337890625
26.3953149333582	-0.035565185546875
26.4953149331058	-0.0355682373046875
26.5953149328533	-0.0355712890625
26.6953149326008	-0.035577392578125
26.7953149323483	-0.0355804443359375
26.8953149320959	-0.0355865478515625
26.9953149318434	-0.0355926513671875
27.0953149315909	-0.035595703125
27.1953149313384	-0.035601806640625
27.295314931086	-0.0356048583984375
27.3953149308335	-0.03560791015625
27.495314930581	-0.035614013671875
27.5953149303285	-0.0356170654296875
27.6953149300761	-0.0356231689453125
27.7953149298236	-0.035626220703125
27.8953149295711	-0.0356292724609375
27.9953149293186	-0.03563232421875
28.0953149290661	-0.0356353759765625
28.1953149288137	-0.035638427734375
28.2953149285612	-0.0356414794921875
28.3953149283087	-0.03564453125
28.4953149280562	-0.03564453125
28.5953149278038	-0.03564453125
28.6953149275513	-0.0356414794921875
28.7953149272988	-0.0356414794921875
28.8953149270463	-0.0356414794921875
28.9953149267939	-0.0356414794921875
29.0953149265414	-0.035638427734375
29.1953149262889	-0.035638427734375
29.2953149260364	-0.0356353759765625
29.395314925784	-0.03563232421875
29.4953149255315	-0.03563232421875
29.595314925279	-0.03563232421875
29.6953149250265	-0.0356292724609375
29.7953149247741	-0.035626220703125
29.8953149245216	-0.035626220703125
29.9953149242691	-0.0356231689453125
30.0953149240166	-0.0356231689453125
30.1953149237642	-0.0356231689453125
30.2953149235117	-0.0356201171875
30.3953149232592	-0.0356201171875
30.4953149230067	-0.0356201171875
30.5953149227543	-0.0356201171875
30.6953149225018	-0.0356201171875
30.7953149222493	-0.0356231689453125
30.8953149219968	-0.0356231689453125
30.9953149217444	-0.035626220703125
31.0953149214919	-0.0356292724609375
31.1953149212394	-0.03563232421875
31.2953149209869	-0.0356353759765625
31.3953149207344	-0.0356414794921875
31.495314920482	-0.0356475830078125
31.5953149202295	-0.0356536865234375
31.695314919977	-0.0356597900390625
31.7953149197245	-0.0356689453125
31.8953149194721	-0.0356781005859375
31.9953149192196	-0.035687255859375
32.0953149189671	-0.0356964111328125
32.1953149187146	-0.03570556640625
32.2953149184622	-0.0357177734375
32.3953149182097	-0.0357269287109375
32.4953149179572	-0.0357391357421875
32.5953149177047	-0.0357513427734375
32.6953149174523	-0.035760498046875
32.7953149171998	-0.035772705078125
32.8953149169473	-0.0357818603515625
32.9953149166948	-0.0357940673828125
33.0953149164424	-0.03580322265625
33.1953149161899	-0.0358123779296875
33.2953149159374	-0.035821533203125
33.3953149156849	-0.0358306884765625
33.4953149154325	-0.0358367919921875
33.59531491518	-0.0358428955078125
33.6953149149275	-0.0358489990234375
33.795314914675	-0.0358551025390625
33.8953149144226	-0.0358612060546875
33.9953149141701	-0.0358642578125
34.0953149139176	-0.0358673095703125
34.1953149136651	-0.035870361328125
34.2953149134127	-0.0358734130859375
34.3953149131602	-0.0358734130859375
34.4953149129077	-0.03587646484375
34.5953149126552	-0.0358795166015625
34.6953149124028	-0.0358795166015625
34.7953149121503	-0.0358795166015625
34.8953149118978	-0.0358795166015625
34.9953149116453	-0.03587646484375
35.0953149113928	-0.03587646484375
35.1953149111404	-0.0358734130859375
35.2953149108879	-0.035870361328125
35.3953149106354	-0.035870361328125
35.4953149103829	-0.0358673095703125
35.5953149101305	-0.0358642578125
35.695314909878	-0.035858154296875
35.7953149096255	-0.0358551025390625
35.895314909373	-0.03585205078125
35.9953149091206	-0.035845947265625
36.0953149088681	-0.03583984375
36.1953149086156	-0.035833740234375
36.2953149083631	-0.0358245849609375
36.3953149081107	-0.0358184814453125
36.4953149078582	-0.035809326171875
36.5953149076057	-0.0358001708984375
