Potential - Start -0.2 V, Upper Vertex 1.5 V, Lower Vertex -0.2 V, Stop -0.19 V; Scan - # end cross 5, Rate 0.1 Vps, Step 0.01 V 
Scan	Index	Time (s)	Potential applied (V)	WE(1).Potential (V)	WE(1).Current (A)	WE(1).Power (W)	WE(1).Resistance (Ω)	WE(1).Charge (C)
1	1	64.8275538363262	-0.189971923828125	-0.189849853515625	-1.79138183593749E-07	3.40093571082889E-08	1059795.625	0
1	2	64.9282618360719	-0.179901123046875	-0.179840087890625	-1.446533203125E-07	2.6014465248636E-08	1243249	-1.63041971035227E-08
1	3	65.0289698358176	-0.169830322265625	-0.169708251953125	-1.1749267578125E-07	1.99394758482185E-08	1444415.625	-2.95042958953218E-08
1	4	65.1296778355634	-0.159759521484375	-0.15960693359375	-9.46044921875E-08	1.5099532291174E-08	1687096.875	-4.01842363828564E-08
1	5	65.2303858353091	-0.149688720703125	-0.14959716796875	-7.35473632812497E-08	1.10024771515782E-08	2034024.875	-4.86513549446954E-08
1	6	65.3310938350548	-0.139617919921875	-0.1395263671875	-5.340576171875E-08	7.45151140790767E-09	2612571.5	-5.50439516189272E-08
1	7	65.4318018348006	-0.129547119140625	-0.129425048828125	-3.41796874999994E-08	4.42370717834706E-09	3786607.5	-5.94542299836576E-08
1	8	65.5325098345463	-0.119476318359375	-0.119384765625	-1.34277343750003E-08	1.60306690144552E-09	8890909	-6.18514519601376E-08
1	9	65.6332178342921	-0.109405517578125	-0.10931396484375	8.85009765625028E-09	-9.67439239829559E-10	-12351724	-6.20819591290456E-08
1	10	65.7339258340378	-0.099334716796875	-0.099273681640625	3.41796874999994E-08	-3.39314309982797E-09	-2904464.5	-5.99152372160461E-08
1	11	65.8346338337835	-0.089263916015625	-0.08917236328125	6.561279296875E-08	-5.85084736215435E-09	-1359069.875	-5.4890286094178E-08
1	12	65.9353418335293	-0.079193115234375	-0.079132080078125	1.0406494140625E-07	-8.23487500412057E-09	-760410.5625	-4.63463329936076E-08
1	13	66.036049833275	-0.069122314453125	-0.069091796875	1.55029296875001E-07	-1.07112523295427E-08	-445669.28125	-3.32999015029145E-08
1	14	66.1367578330207	-0.059051513671875	-0.0589599609375	2.21862792968749E-07	-1.30810215992483E-08	-265749.65625	-1.43218770176645E-08
1	15	66.2374658327665	-0.048980712890625	-0.0488128662109375	3.1097412109375E-07	-1.51795376268637E-08	-156967.625	1.25085932722868E-08
1	16	66.3381738325122	-0.038909912109375	-0.03876953125	4.28161621093751E-07	-1.65996247858402E-08	-90548.828125	4.97270313815079E-08
1	17	66.4388818322579	-0.028839111328125	-0.028717041015625	5.7708740234375E-07	-1.65722422451609E-08	-49762.03125	1.00345339149044E-07
1	18	66.5395898320037	-0.018768310546875	-0.0186767578125	7.60498046875E-07	-1.42036373773635E-08	-24558.587890625	1.67698118502813E-07
1	19	66.6402978317494	-0.008697509765625	-0.00861206054687499	9.74426269531251E-07	-8.39181790723842E-09	-8838.083984375	2.55058495213234E-07
1	20	66.7410058314952	0.001373291015625	0.00147094726562499	1.207275390625E-06	1.77583836524775E-09	1218.40246582031	3.64915905493035E-07
1	21	66.8417138312409	0.011444091796875	0.011541748046875	1.4410400390625E-06	1.66321214578602E-08	8009.318359375	4.98269173476729E-07
1	22	66.9424218309866	0.021514892578125	0.021600341796875	1.65252685546875E-06	3.56951446178755E-08	13071.0986328125	6.54042651149211E-07
1	23	67.0431298307324	0.031585693359375	0.0316741943359375	1.82281494140625E-06	5.77361944920085E-08	17376.529296875	8.29040004646231E-07
1	24	67.1438378304781	0.041656494140625	0.041717529296875	1.937255859375E-06	8.08175215638585E-08	21534.341796875	1.018374632622E-06
1	25	67.2445458302238	0.051727294921875	0.051727294921875	1.9927978515625E-06	1.03082037128388E-07	25957.123046875	1.21626851523615E-06
1	26	67.3452538299696	0.061798095703125	0.0618896484375	1.9970703125E-06	1.23597970969058E-07	30990.220703125	1.41717430324206E-06
1	27	67.4459618297153	0.071868896484375	0.071868896484375	1.964111328125E-06	1.41158508881745E-07	36591.05078125	1.61663569997472E-06
1	28	67.5466698294611	0.081939697265625	0.081939697265625	1.907958984375E-06	1.56337577550403E-07	42946.2578125	1.81160987722251E-06
1	29	67.6473778292068	0.092010498046875	0.092071533203125	1.83929443359375E-06	1.69346662914904E-07	50058.0703125	2.00029899133369E-06
1	30	67.7480858289525	0.102081298828125	0.102142333984375	1.7681884765625E-06	1.80606889443879E-07	57766.65625	2.18195032175572E-06
1	31	67.8487938286983	0.112152099609375	0.112213134765625	1.69921875E-06	1.90674654731993E-07	66038.078125	2.35654806601815E-06
1	32	67.949501828444	0.122222900390625	0.122283935546875	1.6339111328125E-06	1.99801078792916E-07	74841.2421875	2.52438439929392E-06
1	33	68.0502098281897	0.132293701171875	0.13232421875	1.57501220703125E-06	2.0841225989443E-07	84014.7265625	2.68596659225295E-06
1	34	68.1509178279355	0.142364501953125	0.14239501953125	1.5216064453125E-06	2.16669164387895E-07	93582.0390625	2.84189377453004E-06
1	35	68.2516258276812	0.152435302734375	0.15240478515625	1.473388671875E-06	2.24551470751067E-07	103438.28125	2.99270368486759E-06
1	36	68.3523338274269	0.162506103515625	0.16253662109375	1.4312744140625E-06	2.3263450543709E-07	113560.765625	3.13896521220158E-06
1	37	68.4530418271727	0.172576904296875	0.172637939453125	1.39312744140625E-06	2.40506636828286E-07	123921.1484375	3.28118517245457E-06
1	38	68.5537498269184	0.182647705078125	0.182708740234375	1.35955810546875E-06	2.48403125624463E-07	134388.328125	3.41979375662049E-06
1	39	68.6544578266642	0.192718505859375	0.192779541015625	1.329345703125E-06	2.56270652698731E-07	145018.375	3.55519091499445E-06
1	40	68.7551658264099	0.202789306640625	0.20281982421875	1.302490234375E-06	2.64170836317135E-07	155716.96875	3.68771429748449E-06
1	41	68.8558738261556	0.212860107421875	0.212799072265625	1.278076171875E-06	2.71973419785354E-07	166499.515625	3.81765630663722E-06
1	42	68.9565818259014	0.222930908203125	0.2230224609375	1.256103515625E-06	2.80139289543513E-07	177551.03125	3.94526205127477E-06
1	43	69.0572898256471	0.233001708984375	0.233001708984375	1.23626708984375E-06	2.88052348196288E-07	188471.984375	4.07076322517241E-06
1	44	69.1579978253928	0.243072509765625	0.24310302734375	1.21826171875E-06	2.96163108259861E-07	199549.109375	4.19435855292249E-06
1	45	69.2587058251386	0.253143310546875	0.253173828125	1.202392578125E-06	3.0441432841144E-07	210558.375	4.3162481233594E-06
1	46	69.3594138248843	0.263214111328125	0.263214111328125	1.1871337890625E-06	3.1247034826265E-07	221722.375	4.4365701796778E-06
1	47	69.4601218246301	0.273284912109375	0.2733154296875	1.17340087890625E-06	3.20708551271309E-07	232925.890625	4.55543249699986E-06
1	48	69.5608298243758	0.283355712890625	0.28338623046875	1.160888671875E-06	3.28979837149745E-07	244111.484375	4.67297331852023E-06
1	49	69.6615378241215	0.293426513671875	0.293426513671875	1.15020751953125E-06	3.37501376179716E-07	255107.46875	4.78934634884354E-06
1	50	69.7622458238673	0.303497314453125	0.30352783203125	1.13983154296875E-06	3.45970590842626E-07	266291.84375	4.90465890834457E-06
1	51	69.862953823613	0.313568115234375	0.313568115234375	1.1309814453125E-06	3.54639723809669E-07	277253.09375	5.01900331073557E-06
1	52	69.9636618233587	0.323638916015625	0.32366943359375	1.12213134765625E-06	3.63199603725661E-07	288441.6875	5.13245686306618E-06
1	53	70.0643698231045	0.333709716796875	0.333770751953125	1.11480712890625E-06	3.7208999970062E-07	299397.75	5.245095508144E-06
1	54	70.1650778228502	0.343780517578125	0.343780517578125	1.1083984375E-06	3.81045794028978E-07	310159.6875	5.35704293724848E-06
1	55	70.2657858225959	0.353851318359375	0.3538818359375	1.10260009765625E-06	3.90190137977697E-07	320952.125	5.46837554793456E-06
1	56	70.3664938223417	0.363922119140625	0.36395263671875	1.09771728515625E-06	3.99517091409507E-07	331554.09375	5.57917019250453E-06
1	57	70.4672018220874	0.373992919921875	0.373992919921875	1.09405517578125E-06	4.09168876558397E-07	341841	5.68953464608057E-06
1	58	70.5679098218332	0.384063720703125	0.384063720703125	1.090087890625E-06	4.18663177015333E-07	352323.65625	5.79951483814511E-06
1	59	70.6686178215789	0.394134521484375	0.39422607421875	1.087646484375E-06	4.28778577088451E-07	362457.9375	5.90917261433788E-06
1	60	70.7693258213246	0.404205322265625	0.404296875	1.0858154296875E-06	4.3899174784201E-07	372344.03125	6.01861529503367E-06
1	61	70.8700338210704	0.414276123046875	0.41424560546875	1.08367919921875E-06	4.48909332817493E-07	382258.53125	6.12785788689507E-06
1	62	70.9707418208161	0.424346923828125	0.42431640625	1.08154296875E-06	4.58916389334263E-07	392325.09375	6.23688538325951E-06
1	63	71.0714498205618	0.434417724609375	0.434417724609375	1.08062744140625E-06	4.69443676820447E-07	402005.09375	6.34575962976669E-06
1	64	71.1721578203076	0.444488525390625	0.44451904296875	1.0791015625E-06	4.79681148135569E-07	411934.40625	6.45451018499443E-06
1	65	71.2728658200533	0.454559326171875	0.454620361328125	1.0784912109375E-06	4.90304046252277E-07	421533.6875	6.56315387459472E-06
1	66	71.373573819799	0.464630126953125	0.464599609375	1.0791015625E-06	5.01350143622403E-07	430543.03125	6.67179710944765E-06
1	67	71.4742818195448	0.474700927734375	0.47467041015625	1.0791015625E-06	5.12217525283631E-07	439875.59375	6.78047126712045E-06
1	68	71.5749898192905	0.484771728515625	0.484710693359375	1.0797119140625E-06	5.2334786460051E-07	448925.96875	6.8891763476131E-06
1	69	71.6756978190363	0.494842529296875	0.494873046875	1.0809326171875E-06	5.34924424755445E-07	457820.4375	6.99797328707064E-06
1	70	71.776405818782	0.504913330078125	0.5048828125	1.0821533203125E-06	5.46360581665795E-07	466553.875	7.10689346306026E-06
1	71	71.8771138185277	0.514984130859375	0.51495361328125	1.08306884765625E-06	5.57730174932658E-07	475457.90625	7.21592095942469E-06
1	72	71.9778218182735	0.525054931640625	0.52508544921875	1.0845947265625E-06	5.69504891245742E-07	484130.5625	7.32507169232122E-06
1	73	72.0785298180192	0.535125732421875	0.535125732421875	1.08673095703125E-06	5.81537676680455E-07	492417.875	7.43440659789485E-06
1	74	72.1792378177649	0.545196533203125	0.545135498046875	1.08856201171875E-06	5.93413744809368E-07	500785	7.54394113755552E-06
1	75	72.2799458175107	0.555267333984375	0.555267333984375	1.0906982421875E-06	6.05629111305461E-07	509093.46875	7.65367531130323E-06
1	76	72.3806538172564	0.565338134765625	0.565338134765625	1.09344482421875E-06	6.1816604102205E-07	517024.875	7.76365595811512E-06
1	77	72.4813618170022	0.575408935546875	0.575408935546875	1.09619140625E-06	6.30758279385191E-07	524916.5	7.87391309131635E-06
1	78	72.5820698167479	0.585479736328125	0.585479736328125	1.09893798828125E-06	6.4340594008172E-07	532768.6875	7.98444671090692E-06
1	79	72.6827778164936	0.595550537109375	0.595550537109375	1.1016845703125E-06	6.56108852581383E-07	540581.6875	8.09525681688683E-06
1	80	72.7834858162394	0.605621337890625	0.605621337890625	1.1041259765625E-06	6.68682275772881E-07	548507.4375	8.20632794784615E-06
1	81	72.8841938159851	0.615692138671875	0.61566162109375	1.107177734375E-06	6.81646838529559E-07	556063.9375	8.3176755651948E-06
1	82	72.9849018157308	0.625762939453125	0.62567138671875	1.10992431640625E-06	6.94447862770176E-07	563706.375	8.42931603983743E-06
1	83	73.0856098154766	0.635833740234375	0.63580322265625	1.11358642578125E-06	7.08021843820461E-07	570950.9375	8.54127847560449E-06
1	84	73.1863178152223	0.645904541015625	0.645843505859375	1.1163330078125E-06	7.2097640213542E-07	578540.1875	8.65356378199067E-06
1	85	73.287025814968	0.655975341796875	0.655975341796875	1.11907958984375E-06	7.34088587250881E-07	586174	8.76612557476619E-06
1	86	73.3877338147138	0.666046142578125	0.665985107421875	1.1212158203125E-06	7.46712998989096E-07	593984.8125	8.8789338406059E-06
1	87	73.4884418144595	0.676116943359375	0.6761474609375	1.124267578125E-06	7.60170678404393E-07	601411.5	8.99200313142501E-06
1	88	73.5891498142053	0.686187744140625	0.6861572265625	1.1273193359375E-06	7.73518252117356E-07	608662.75	9.10537892195862E-06
1	89	73.689857813951	0.696258544921875	0.696197509765625	1.13037109375E-06	7.86961493304261E-07	615901.75	9.21906303119613E-06
1	90	73.7905658136967	0.706329345703125	0.706390380859375	1.1334228515625E-06	8.00638986220292E-07	623236.375	9.33305364014814E-06
1	91	73.8912738134425	0.716400146484375	0.716339111328125	1.13616943359375E-06	8.13882593320159E-07	630486.1875	9.44733710639412E-06
1	92	73.9919818131882	0.726470947265625	0.72637939453125	1.13983154296875E-06	8.27950145776413E-07	637269.125	9.56194253376452E-06
1	93	74.0926898129339	0.736541748046875	0.736541748046875	1.143798828125E-06	8.4245561993157E-07	643943.4375	9.67693267739378E-06
1	94	74.1933978126797	0.746612548828125	0.746612548828125	1.14776611328125E-06	8.5693653772978E-07	650491.9375	9.79232208919711E-06
1	95	74.2941058124254	0.756683349609375	0.75714111328125	1.15203857421875E-06	8.7225572542593E-07	657218.5625	9.90812623058446E-06
1	96	74.3948138121712	0.766754150390625	0.76690673828125	1.15631103515625E-06	8.86782686393417E-07	663235.6875	1.00243614724604E-05
1	97	74.4955218119169	0.776824951171875	0.7769775390625	1.16119384765625E-06	9.02221529486269E-07	669119.5625	1.01410569186555E-05
1	98	74.5962298116626	0.786895751953125	0.787353515625	1.16607666015625E-06	9.18114551495819E-07	675215.875	1.02582444014843E-05
1	99	74.6969378114084	0.796966552734375	0.79681396484375	1.171875E-06	9.33766330035724E-07	679947.9375	1.03759693956818E-05
1	100	74.7976458111541	0.807037353515625	0.80718994140625	1.17767333984375E-06	9.506060791864E-07	685410.75	1.04942782854778E-05
1	101	74.8983538108998	0.817108154296875	0.81695556640625	1.18255615234375E-06	9.66095853982551E-07	690838.6875	1.06131255961373E-05
1	102	74.9990618106456	0.827178955078125	0.82733154296875	1.1883544921875E-06	9.83163090495509E-07	696199.3125	1.07325104181655E-05
1	103	75.0997698103913	0.837249755859375	0.8380126953125	1.19384765625E-06	1.00045951967331E-06	701942.75	1.08524636743823E-05
1	104	75.200477810137	0.847320556640625	0.84747314453125	1.1993408203125E-06	1.01640910088463E-06	706615.8125	1.09729708128725E-05
1	105	75.3011858098828	0.857391357421875	0.8575439453125	1.20574951171875E-06	1.03398315332015E-06	711212.3125	1.10940763988765E-05
1	106	75.4018938096285	0.867462158203125	0.867919921875	1.21185302734375E-06	1.05179140064138E-06	716192.375	1.12158122647088E-05
1	107	75.5026018093743	0.877532958984375	0.877685546875	1.217041015625E-06	1.06817935829895E-06	721163.5	1.13381165647297E-05
1	108	75.60330980912	0.887603759765625	0.887451171875	1.22314453125E-06	1.08548101707129E-06	725548.9375	1.14609902084339E-05
1	109	75.7040178088657	0.897674560546875	0.897216796875	1.229248046875E-06	1.1029019333364E-06	729890.75	1.15844777610619E-05
1	110	75.8047258086115	0.907745361328125	0.90789794921875	1.2347412109375E-06	1.12101895410888E-06	735294.125	1.17085492092883E-05
1	111	75.9054338083572	0.917816162109375	0.91796875	1.23992919921875E-06	1.13821624836419E-06	740339.6875	1.18331590783782E-05
1	112	76.0061418081029	0.927886962890625	0.927734375	1.2457275390625E-06	1.15570423986355E-06	744733	1.19583219202468E-05
1	113	76.1068498078487	0.937957763671875	0.9375	1.2518310546875E-06	1.17359161322383E-06	748903	1.20840841191239E-05
1	114	76.2075578075944	0.948028564453125	0.9478759765625	1.25823974609375E-06	1.19265519060718E-06	753334.9375	1.22104756883346E-05
1	115	76.3082658073401	0.958099365234375	0.958251953125	1.2640380859375E-06	1.21126686281059E-06	758087.9375	1.23374829854583E-05
1	116	76.4089738070859	0.968170166015625	0.96832275390625	1.26953125E-06	1.22931601254095E-06	762740.375	1.2465057807276E-05
1	117	76.5096818068316	0.978240966796875	0.97808837890625	1.2750244140625E-06	1.24708651583205E-06	767113.5	1.25931865113671E-05
1	118	76.6103898065774	0.988311767578125	0.98907470703125	1.28173828125E-06	1.26773488773324E-06	771666.6875	1.27219300338766E-05
1	119	76.7110978063231	0.998382568359375	0.99884033203125	1.287841796875E-06	1.28634826523921E-06	775592.4375	1.28513183881296E-05
1	120	76.8118058060688	1.00845336914063	1.00860595703125	1.29486083984375E-06	1.30600426473393E-06	778930	1.29813679450308E-05
1	121	76.9125138058146	1.01852416992188	1.019287109375	1.3006591796875E-06	1.32574507460959E-06	783669.625	1.31120623336756E-05
1	122	77.0132218055603	1.02859497070313	1.0284423828125	1.30859375E-06	1.34581318889104E-06	785914.1875	1.32434488477884E-05
1	123	77.113929805306	1.03866577148438	1.0382080078125	1.314697265625E-06	1.36492917590658E-06	789693.625	1.33755420392845E-05
1	124	77.2146378050518	1.04873657226563	1.04888916015625	1.32171630859375E-06	1.38633379265229E-06	793581.1875	1.35082964334288E-05
1	125	77.3153458047975	1.05880737304688	1.05926513671875	1.329345703125E-06	1.40812949211977E-06	796832	1.36417875182815E-05
1	126	77.4160538045433	1.06887817382813	1.06903076171875	1.33697509765625E-06	1.42926751323103E-06	799589.1875	1.37760471261572E-05
1	127	77.516761804289	1.07894897460938	1.0791015625	1.3446044921875E-06	1.45096475989703E-06	802542	1.39110761665506E-05
1	128	77.6174698040347	1.08901977539063	1.0888671875	1.3531494140625E-06	1.47339994782669E-06	804691.0625	1.40469182952074E-05
1	129	77.7181778037805	1.09909057617188	1.0992431640625	1.3616943359375E-06	1.49683319250471E-06	807261.3125	1.41836217153468E-05
1	130	77.8188858035262	1.10916137695313	1.1090087890625	1.3702392578125E-06	1.51960739458445E-06	809354.125	1.43211855174741E-05
1	131	77.9195938032719	1.11923217773438	1.11907958984375	1.3800048828125E-06	1.54433530497045E-06	810924.375	1.44596715472289E-05
1	132	78.0203018030177	1.12930297851563	1.1297607421875	1.38885498046875E-06	1.56907378823234E-06	813447.625	1.45990943565266E-05
1	133	78.1210098027634	1.13937377929688	1.13922119140625	1.39923095703125E-06	1.59403350608045E-06	814176.6875	1.47394857776817E-05
1	134	78.2217178025091	1.14944458007813	1.14898681640625	1.40838623046875E-06	1.61821719757427E-06	815818	1.48808603626094E-05
1	135	78.3224258022549	1.15951538085938	1.15966796875	1.41876220703125E-06	1.64529308221972E-06	817380.125	1.50232190208044E-05
1	136	78.4231338020006	1.16958618164063	1.16973876953125	1.42974853515625E-06	1.67243229043379E-06	818143	1.51666527017369E-05
1	137	78.5238418017464	1.17965698242188	1.17950439453125	1.4410400390625E-06	1.69971303876082E-06	818509.125	1.53112086991314E-05
1	138	78.6245498014921	1.18972778320313	1.1895751953125	1.45263671875E-06	1.72802049291931E-06	818907.625	1.5456917026313E-05
1	139	78.7252578012378	1.19979858398438	1.1993408203125	1.4642333984375E-06	1.75611489794392E-06	819091.3125	1.56037931446917E-05
1	140	78.8259658009836	1.20986938476563	1.209716796875	1.47613525390625E-06	1.78570564912661E-06	819516.25	1.57518516061828E-05
1	141	78.9266738007293	1.21994018554688	1.2200927734375	1.48834228515625E-06	1.81591565251438E-06	819766.25	1.59011251525953E-05
1	142	79.027381800475	1.23001098632813	1.2298583984375	1.50115966796875E-06	1.84621376320138E-06	819272.1875	1.60516592586646E-05
1	143	79.1280898002208	1.24008178710938	1.23992919921875	1.51397705078125E-06	1.87722434930038E-06	818988.125	1.62034830282209E-05
1	144	79.2287977999665	1.25015258789063	1.25	1.527099609375E-06	1.9088745375484E-06	818545.1875	1.6356612832169E-05
1	145	79.3295057997123	1.26022338867188	1.260986328125	1.5411376953125E-06	1.94335348169261E-06	818217.875	1.65111105161486E-05
1	146	79.430213799458	1.27029418945313	1.2701416015625	1.55548095703125E-06	1.97568101611978E-06	816558.75	1.66670379257994E-05
1	147	79.5309217992037	1.28036499023438	1.2799072265625	1.5704345703125E-06	2.01001057575922E-06	815002	1.68244405358564E-05
1	148	79.6316297989495	1.29043579101563	1.290283203125	1.58660888671875E-06	2.04717480301042E-06	813233.3125	1.69834111147793E-05
1	149	79.7323377986952	1.30050659179688	1.30096435546875	1.6033935546875E-06	2.08595793083077E-06	811381.8125	1.71440406120382E-05
1	150	79.8330457984409	1.31057739257813	1.31103515625	1.62109375E-06	2.12531085708179E-06	808734.9375	1.73064054251881E-05
1	151	79.9337537981867	1.32064819335938	1.32080078125	1.6400146484375E-06	2.16613261727616E-06	805359.1875	1.74706146935932E-05
1	152	80.0344617979324	1.33071899414063	1.33056640625	1.66046142578125E-06	2.20935407924117E-06	801323.3125	1.76368084794376E-05
1	153	80.1351697976781	1.34078979492188	1.34063720703125	1.6827392578125E-06	2.25594294533948E-06	796699.3125	1.78051504917676E-05
1	154	80.2358777974239	1.35086059570313	1.35101318359375	1.70684814453125E-06	2.30597424888401E-06	791525.125	1.79758299054811E-05
1	155	80.3365857971696	1.36093139648438	1.361083984375	1.7333984375E-06	2.35930087910674E-06	785211.25	1.81490613613278E-05
1	156	80.4372937969154	1.37100219726563	1.37115478515625	1.76300048828125E-06	2.41734642258962E-06	777739.3125	1.83251177077182E-05
1	157	80.5380017966611	1.38107299804688	1.3812255859375	1.796875E-06	2.48188962359563E-06	768682.125	1.850437183748E-05
1	158	80.6387097964068	1.39114379882813	1.3916015625	1.83502197265625E-06	2.55361942436139E-06	758356.875	1.86872530321125E-05
1	159	80.7394177961526	1.40121459960938	1.40106201171875	1.87896728515625E-06	2.63254969468107E-06	745655.375	1.88742669706699E-05
1	160	80.8401257958983	1.41128540039063	1.4111328125	1.9293212890625E-06	2.72252873401158E-06	731414.0625	1.90660302905599E-05
1	161	80.940833795644	1.42135620117188	1.4215087890625	1.98638916015625E-06	2.82366977444326E-06	715624.5	1.92632014659466E-05
1	162	81.0415417953898	1.43142700195313	1.4312744140625	2.05230712890625E-06	2.93741459245211E-06	697397.8125	1.94665663002525E-05
1	163	81.1422497951355	1.44149780273438	1.44134521484375	2.12738037109375E-06	3.06628953694599E-06	677521.125	1.96770306502003E-05
1	164	81.2429577948812	1.45156860351563	1.45172119140625	2.21435546875E-06	3.2146267585631E-06	655595.375	1.98956531676231E-05
1	165	81.343665794627	1.46163940429688	1.4617919921875	2.31292724609375E-06	3.38101835950511E-06	632009.5625	2.01236198336119E-05
1	166	81.4443737943727	1.47171020507813	1.47216796875	2.42645263671875E-06	3.57214571522491E-06	606716.1875	2.03622676053783E-05
1	167	81.5450817941185	1.48178100585938	1.48223876953125	2.55401611328125E-06	3.78566141989722E-06	580356.125	2.06130534934346E-05
1	168	81.6457897938642	1.49185180664063	1.49200439453125	2.69317626953125E-06	4.01823081119801E-06	553994.375	2.08772707992466E-05
1	169	81.7464977936099	1.50192260742188	1.50177001953125	2.8375244140625E-06	4.26130918640411E-06	529253.625	2.11557635338977E-05
1	170	81.8472057933557	1.49185180664063	1.4910888671875	2.427978515625E-06	3.62033165401954E-06	614127.75	2.14209030673373E-05
1	171	81.9479137931014	1.48178100585938	1.48223876953125	2.1246337890625E-06	3.14921453536954E-06	697644.375	2.1650144844898E-05
1	172	82.0486217928471	1.47171020507813	1.47216796875	1.884765625E-06	2.77469143838971E-06	781088.125	2.18520344787976E-05
1	173	82.1493297925929	1.46163940429688	1.46148681640625	1.68975830078125E-06	2.46955937655002E-06	864908.8125	2.20320252992678E-05
1	174	82.2500377923386	1.45156860351563	1.45172119140625	1.52923583984375E-06	2.22002404370869E-06	949311.5625	2.21941154450178E-05
1	175	82.3507457920844	1.44149780273438	1.4410400390625	1.3970947265625E-06	2.01326952264935E-06	1031454.8125	2.23414681386203E-05
1	176	82.4514537918301	1.43142700195313	1.43157958984375	1.28662109375E-06	1.84190048457822E-06	1112666	2.24766026803991E-05
1	177	82.5521617915758	1.42135620117188	1.42120361328125	1.195068359375E-06	1.6984354260785E-06	1189223.75	2.26015654334333E-05
1	178	82.6528697913216	1.41128540039063	1.41143798828125	1.1187744140625E-06	1.57908073106228E-06	1261593	2.27180771616986E-05
1	179	82.7535777910673	1.40121459960938	1.4013671875	1.0546875E-06	1.47800437844126E-06	1328703.75	2.28275202971417E-05
1	180	82.854285790813	1.39114379882813	1.39068603515625	1.0009765625E-06	1.39204416882421E-06	1389329.25	2.29310317081399E-05
1	181	82.9549937905588	1.38107299804688	1.3812255859375	9.5550537109375E-07	1.31976844386372E-06	1445544.625	2.3029548174236E-05
1	182	83.0557017903045	1.37100219726563	1.37054443359375	9.16748046875E-07	1.25644396575808E-06	1495006.625	2.31238227570429E-05
1	183	83.1564097900502	1.36093139648438	1.36077880859375	8.8348388671875E-07	1.20222614441445E-06	1540241.75	2.32144720939687E-05
1	184	83.257117789796	1.35086059570313	1.3507080078125	8.5418701171875E-07	1.15375712539389E-06	1581279.125	2.33019709412474E-05
1	185	83.3578257895417	1.34078979492188	1.34033203125	8.28857421875E-07	1.11094414023682E-06	1617084	2.3386719476548E-05
1	186	83.4585337892875	1.33071899414063	1.33087158203125	8.06884765625E-07	1.07386006220622E-06	1649394.875	2.346908513573E-05
1	187	83.5592417890332	1.32064819335938	1.32049560546875	7.86743164062501E-07	1.03889090041775E-06	1678432.875	2.35493298532674E-05
1	188	83.6599497887789	1.31057739257813	1.31072998046875	7.6873779296875E-07	1.0076076932819E-06	1705041.75	2.36276555369841E-05
1	189	83.7606577885247	1.30050659179688	1.3006591796875	7.525634765625E-07	9.78828552433697E-07	1728305	2.37042586377356E-05
1	190	83.8613657882704	1.29043579101563	1.2908935546875	7.3822021484375E-07	9.52963716827071E-07	1748656.5	2.37793246924412E-05
1	191	83.9620737880161	1.28036499023438	1.28021240234375	7.2479248046875E-07	9.27888322621584E-07	1766315.75	2.38529937632848E-05
1	192	84.0627817877619	1.27029418945313	1.2701416015625	7.1258544921875E-07	9.05084391433775E-07	1782441.25	2.39253713516518E-05
1	193	84.1634897875076	1.26022338867188	1.2603759765625	7.0220947265625E-07	8.85047882093204E-07	1794871.875	2.39966120716417E-05
1	194	84.2641977872534	1.25015258789063	1.25030517578125	6.915283203125E-07	8.64621426899248E-07	1808031.75	2.40667923208093E-05
1	195	84.3649057869991	1.24008178710938	1.23992919921875	6.8206787109375E-07	8.45715874220332E-07	1817897.125	2.41359593928792E-05
1	196	84.4656137867448	1.23001098632813	1.2298583984375	6.7291259765625E-07	8.27587143703568E-07	1827664.5	2.42041878664168E-05
1	197	84.5663217864906	1.21994018554688	1.22039794921875	6.6375732421875E-07	8.10048049970646E-07	1838620.75	2.42714941123268E-05
1	198	84.6670297862363	1.20986938476563	1.21002197265625	6.5460205078125E-07	7.92082857969945E-07	1848484.875	2.43378781306092E-05
1	199	84.767737785982	1.19979858398438	1.199951171875	6.46362304687501E-07	7.75603211877751E-07	1856468.375	2.44033872149885E-05
1	200	84.8684457857278	1.18972778320313	1.1895751953125	6.38427734375E-07	7.5945774824504E-07	1863288.75	2.4468081392115E-05
1	201	84.9691537854735	1.17965698242188	1.17950439453125	6.30798339843749E-07	7.44029364341259E-07	1869859.875	2.45319915848086E-05
1	202	85.0698617852192	1.16958618164063	1.16943359375	6.2286376953125E-07	7.28397822058469E-07	1877511.125	2.45951196120586E-05
1	203	85.170569784965	1.15951538085938	1.15966796875	6.15234375E-07	7.13467557034164E-07	1884920.75	2.46574618358864E-05
1	204	85.2712777847107	1.14944458007813	1.14959716796875	6.07910156249999E-07	6.98851749802998E-07	1891064.375	2.47190528170904E-05
1	205	85.3719857844565	1.13937377929688	1.138916015625	6.0089111328125E-07	6.84364522385295E-07	1895378.375	2.47799198405119E-05
1	206	85.4726937842022	1.12930297851563	1.12884521484375	5.9356689453125E-07	6.70045153583487E-07	1901799.5	2.48400665441295E-05
1	207	85.5734017839479	1.11923217773438	1.1187744140625	5.86853027343751E-07	6.5655609660098E-07	1906396.375	2.48995056608692E-05
1	208	85.6741097836937	1.10916137695313	1.1090087890625	5.7952880859375E-07	6.42702502773318E-07	1913638.875	2.49582371907309E-05
1	209	85.7748177834394	1.09909057617188	1.09893798828125	5.72814941406249E-07	6.29488113190746E-07	1918487	2.5016262952704E-05
1	210	85.8755257831851	1.08901977539063	1.08917236328125	5.65490722656251E-07	6.15916860624566E-07	1926065.875	2.50735811277991E-05
1	211	85.9762337829309	1.07894897460938	1.0791015625	5.57861328125001E-07	6.01989029291872E-07	1934354.5	2.51301462412812E-05
1	212	86.0769417826766	1.06887817382813	1.0687255859375	5.511474609375E-07	5.89025376029895E-07	1939092	2.518598921597E-05
1	213	86.1776497824223	1.05880737304688	1.058349609375	5.4443359375E-07	5.76201102830964E-07	1943946.25	2.52411555266008E-05
1	214	86.2783577821681	1.04873657226563	1.04888916015625	5.3680419921875E-07	5.63048104140762E-07	1953951.125	2.52955996984383E-05
1	215	86.3790657819138	1.03866577148438	1.03912353515625	5.30395507812501E-07	5.51146456473361E-07	1959148.5	2.53493381023873E-05
1	216	86.4797737816596	1.02859497070313	1.02874755859375	5.23681640625E-07	5.38736230737413E-07	1964452.125	2.54024143941933E-05
1	217	86.5804817814053	1.01852416992188	1.01776123046875	5.1727294921875E-07	5.26460382843652E-07	1967551.625	2.54548322118353E-05
1	218	86.681189781151	1.00845336914063	1.00860595703125	5.10253906249999E-07	5.14645080329501E-07	1976674.75	2.55065715464298E-05
1	219	86.7818977808968	0.998382568359375	0.99884033203125	5.0384521484375E-07	5.03260935147409E-07	1982434.875	2.55576360359555E-05
1	220	86.8826057806425	0.988311767578125	0.98846435546875	4.9774169921875E-07	4.9199991281057E-07	1985898.375	2.56080693361582E-05
1	221	86.9833137803882	0.978240966796875	0.97808837890625	4.913330078125E-07	4.80567052818515E-07	1990683.375	2.56578732660273E-05
1	222	87.084021780134	0.968170166015625	0.96832275390625	4.8553466796875E-07	4.70154247977916E-07	1994343.25	2.5707062377478E-05
1	223	87.1847297798797	0.958099365234375	0.9588623046875	4.791259765625E-07	4.59415815612374E-07	2001274	2.57556366705103E-05
1	224	87.2854377796255	0.948028564453125	0.94757080078125	4.73632812499999E-07	4.48800619778922E-07	2000644.375	2.58036125160288E-05
1	225	87.3861457793712	0.937957763671875	0.93780517578125	4.67529296874999E-07	4.3845136588061E-07	2005874.75	2.58510026469594E-05
1	226	87.4868537791169	0.927886962890625	0.9283447265625	4.61730957031251E-07	4.28645478223189E-07	2010575.125	2.58977961493656E-05
1	227	87.5875617788627	0.917816162109375	0.91796875	4.559326171875E-07	4.18531868717764E-07	2013387	2.59440039371839E-05
1	228	87.6882697786084	0.907745361328125	0.9075927734375	4.5013427734375E-07	4.08538625151778E-07	2016271.125	2.59896278294036E-05
1	229	87.7889777783541	0.897674560546875	0.8978271484375	4.4403076171875E-07	3.98662848510867E-07	2021993.25	2.60346532741096E-05
1	230	87.8896857780999	0.887603759765625	0.88836669921875	4.38842773437501E-07	3.89853283877528E-07	2024339.375	2.60791093751322E-05
1	231	87.9903937778456	0.877532958984375	0.87799072265625	4.3304443359375E-07	3.80208973638219E-07	2027484.25	2.61230125033762E-05
1	232	88.0911017775913	0.867462158203125	0.86761474609375	4.2724609375E-07	3.70685000916637E-07	2030714.375	2.61663299170323E-05
1	233	88.1918097773371	0.857391357421875	0.8575439453125	4.21752929687499E-07	3.61671681048392E-07	2033285.125	2.62090816249838E-05
1	234	88.2925177770828	0.847320556640625	0.84747314453125	4.15649414062499E-07	3.52251703361617E-07	2038913.5	2.62512476183474E-05
1	235	88.3932257768286	0.837249755859375	0.83709716796875	4.09851074218751E-07	3.43085162057832E-07	2042442.375	2.62928151641972E-05
1	236	88.4939337765743	0.827178955078125	0.82763671875	4.04052734375E-07	3.34408866820013E-07	2048338.5	2.63337988144485E-05
1	237	88.59464177632	0.817108154296875	0.8172607421875	3.9825439453125E-07	3.25477657270312E-07	2052107.375	2.63741967501119E-05
1	238	88.6953497760658	0.807037353515625	0.80718994140625	3.93066406250001E-07	3.17279244654856E-07	2053571.5	2.6414043531986E-05
1	239	88.7960577758115	0.796966552734375	0.79681396484375	3.875732421875E-07	3.08823757677601E-07	2055905.5	2.64533518929966E-05
1	240	88.8967657755572	0.786895751953125	0.787353515625	3.826904296875E-07	3.0131263883959E-07	2057416.375	2.64921382040484E-05
1	241	88.997473775303	0.776824951171875	0.7769775390625	3.77502441406249E-07	2.93310904453392E-07	2058205.375	2.65304170170566E-05
1	242	89.0981817750487	0.766754150390625	0.7666015625	3.7200927734375E-07	2.85182892412195E-07	2060705.5	2.65681574092014E-05
1	243	89.1988897747945	0.756683349609375	0.75653076171875	3.6773681640625E-07	2.78204225878653E-07	2057261.375	2.66054066742072E-05
1	244	89.2995977745402	0.746612548828125	0.746551513671875	3.63769531249999E-07	2.71572673682385E-07	2052265.25	2.6642241209629E-05
1	245	89.4003057742859	0.736541748046875	0.736480712890625	3.59191894531249E-07	2.64537902694428E-07	2050382.375	2.66786446445622E-05
1	246	89.5010137740317	0.726470947265625	0.726409912109375	3.55224609375E-07	2.58038681977268E-07	2044931.25	2.67146187979961E-05
1	247	89.6017217737774	0.716400146484375	0.71636962890625	3.5125732421875E-07	2.51630069669773E-07	2039444	2.67501927737612E-05
1	248	89.7024297735231	0.706329345703125	0.706298828125	3.4820556640625E-07	2.45937172849153E-07	2028396.125	2.67854138655821E-05
1	249	89.8031377732689	0.696258544921875	0.6961669921875	3.436279296875E-07	2.39222430309383E-07	2025932.5	2.68202511506388E-05
1	250	89.9038457730146	0.686187744140625	0.68609619140625	3.40576171875E-07	2.33668004057108E-07	2014516.25	2.6854702809942E-05
1	251	90.0045537727603	0.676116943359375	0.676055908203125	3.36303710937499E-07	2.27360118287834E-07	2010254.125	2.68887870333856E-05
1	252	90.1052617725061	0.666046142578125	0.666046142578125	3.3294677734375E-07	2.21757915142007E-07	2000458.375	2.69224856310757E-05
1	253	90.2059697722518	0.655975341796875	0.655975341796875	3.2928466796875E-07	2.16002618458333E-07	1992122.375	2.69558313448215E-05
1	254	90.3066777719976	0.645904541015625	0.6458740234375	3.25927734375001E-07	2.10508247278085E-07	1981648	2.6988824174623E-05
1	255	90.4073857717433	0.635833740234375	0.63580322265625	3.2318115234375E-07	2.05479622650273E-07	1967327.625	2.70215095952153E-05
1	256	90.508093771489	0.625762939453125	0.625732421875	3.19824218750001E-07	2.00124375737687E-07	1956488.625	2.70538876065984E-05
1	257	90.6088017712348	0.615692138671875	0.615631103515625	3.16772460937501E-07	1.95014976611674E-07	1943449	2.70859418378677E-05
1	258	90.7095097709805	0.605621337890625	0.6055908203125	3.13720703125001E-07	1.89986380405571E-07	1930350.125	2.71176904789172E-05
1	259	90.8102177707262	0.595550537109375	0.59552001953125	3.10363769531249E-07	1.84827825933098E-07	1918780.75	2.71491153398529E-05
1	260	90.910925770472	0.585479736328125	0.585418701171875	3.0792236328125E-07	1.80263512561396E-07	1901189.25	2.7180249162484E-05
1	261	91.0116337702177	0.575408935546875	0.57537841796875	3.04260253906249E-07	1.75064784002643E-07	1891073.25	2.72110755759059E-05
1	262	91.1123417699635	0.565338134765625	0.565338134765625	3.01208496093749E-07	1.70284650380381E-07	1876899.625	2.72415618383093E-05
1	263	91.2130497697092	0.555267333984375	0.55517578125	2.98461914062501E-07	1.6569882177464E-07	1860122.75	2.72717588813975E-05
1	264	91.3137577694549	0.545196533203125	0.545135498046875	2.960205078125E-07	1.61371275453348E-07	1841546.5	2.73016921710223E-05
1	265	91.4144657692007	0.535125732421875	0.535125732421875	2.9327392578125E-07	1.56938426698616E-07	1824661.75	2.73313653451623E-05
1	266	91.5151737689464	0.525054931640625	0.524993896484375	2.9022216796875E-07	1.52364862060494E-07	1808938.125	2.73607474809978E-05
1	267	91.6158817686921	0.514984130859375	0.51495361328125	2.8717041015625E-07	1.47879433143316E-07	1793198.875	2.73898222076241E-05
1	268	91.7165897684379	0.504913330078125	0.504913330078125	2.850341796875E-07	1.43917546324701E-07	1771413.375	2.74186349997763E-05
1	269	91.8172977681836	0.494842529296875	0.494873046875	2.825927734375E-07	1.39847543323413E-07	1751188	2.74472167802742E-05
1	270	91.9180057679293	0.484771728515625	0.484710693359375	2.80151367187501E-07	1.35792362243592E-07	1730174.25	2.74755529972026E-05
1	271	92.0187137676751	0.474700927734375	0.4747314453125	2.7740478515625E-07	1.31692772242786E-07	1711331.125	2.75036290986463E-05
1	272	92.1194217674208	0.464630126953125	0.46466064453125	2.74658203125E-07	1.27622854506626E-07	1691777.875	2.75314268947113E-05
1	273	92.2201297671666	0.454559326171875	0.454559326171875	2.7191162109375E-07	1.23599960488718E-07	1671717.25	2.7558948204387E-05
1	274	92.3208377669123	0.444488525390625	0.44451904296875	2.69775390625E-07	1.19920287033892E-07	1647737.625	2.75862257694826E-05
1	275	92.421545766658	0.434417724609375	0.434417724609375	2.6702880859375E-07	1.16002048855535E-07	1626857.125	2.76132559520192E-05
1	276	92.5222537664038	0.424346923828125	0.424285888671875	2.64587402343749E-07	1.12260693185817E-07	1603575.625	2.76400242000818E-05
1	277	92.6229617661495	0.414276123046875	0.41424560546875	2.6214599609375E-07	1.08592821845832E-07	1580209.625	2.76665468845749E-05
1	278	92.7236697658952	0.404205322265625	0.40423583984375	2.58789062500001E-07	1.0461180721677E-07	1562028.375	2.76927785307635E-05
1	279	92.824377765641	0.394134521484375	0.39422607421875	2.55737304687501E-07	1.00818304815675E-07	1541527.5	2.77186863968382E-05
1	280	92.9250857653867	0.384063720703125	0.384124755859375	2.52685546875001E-07	9.70627738183794E-08	1520169.125	2.77442886726931E-05
1	281	93.0257937651324	0.373992919921875	0.373992919921875	2.49633789062501E-07	9.33612653852833E-08	1498166.25	2.77695817203494E-05
1	282	93.1265017648782	0.363922119140625	0.363983154296875	2.4749755859375E-07	9.00849386198388E-08	1470653.5	2.7794614652521E-05
1	283	93.2272097646239	0.353851318359375	0.35382080078125	2.45056152343751E-07	8.67059668507864E-08	1443835.625	2.78194165730383E-05
1	284	93.3279177643697	0.343780517578125	0.34381103515625	2.423095703125E-07	8.33087057117154E-08	1418891.75	2.78439565590816E-05
1	285	93.4286257641154	0.333709716796875	0.333709716796875	2.40478515625001E-07	8.02500110808069E-08	1387690.5	2.786826735246E-05
1	286	93.5293337638611	0.323638916015625	0.323699951171875	2.38037109375E-07	7.70525971915959E-08	1359871.875	2.78923635050887E-05
1	287	93.6300417636069	0.313568115234375	0.3135986328125	2.349853515625E-07	7.3691083457561E-08	1334545.5	2.79161813523388E-05
1	288	93.7307497633526	0.303497314453125	0.30352783203125	2.3223876953125E-07	7.049092687339E-08	1306964.625	2.79397081612842E-05
1	289	93.8314577630983	0.293426513671875	0.293426513671875	2.29797363281251E-07	6.74286368962385E-08	1276892.5	2.79629730357556E-05
1	290	93.9321657628441	0.283355712890625	0.283355712890625	2.26745605468751E-07	6.42496615910204E-08	1249663.625	2.79859614238376E-05
1	291	94.0328737625898	0.273284912109375	0.2733154296875	2.23693847656251E-07	6.11389765481363E-08	1221828.125	2.80086442216998E-05
1	292	94.1335817623356	0.263214111328125	0.26318359375	2.20947265625E-07	5.81496948370841E-08	1191160.25	2.80310323432786E-05
1	293	94.2342897620813	0.253143310546875	0.25311279296875	2.17285156249999E-07	5.49976491015514E-08	1164887.625	2.80531003227225E-05
1	294	94.334997761827	0.243072509765625	0.24310302734375	2.1331787109375E-07	5.1858219052292E-08	1139628.125	2.80747826764127E-05
1	295	94.4357057615728	0.233001708984375	0.233062744140625	2.093505859375E-07	4.87918185854141E-08	1113265.375	2.80960648524342E-05
1	296	94.5364137613185	0.222930908203125	0.22296142578125	2.05078124999999E-07	4.57245121765482E-08	1087202.375	2.81169341178611E-05
1	297	94.6371217610642	0.212860107421875	0.21295166015625	2.001953125E-07	4.26319211044301E-08	1063719.625	2.81373413599795E-05
1	298	94.73782976081	0.202789306640625	0.202789306640625	1.9500732421875E-07	3.95453980672755E-08	1039906.125	2.81572411040543E-05
1	299	94.8385377605557	0.192718505859375	0.1927490234375	1.89208984375E-07	3.6469845809961E-08	1018709.75	2.81765878753504E-05
1	300	94.9392457603014	0.182647705078125	0.18267822265625	1.8280029296875E-07	3.33936327479023E-08	999332.25	2.81953198282281E-05
1	301	95.0399537600472	0.172576904296875	0.172637939453125	1.7547607421875E-07	3.02938296670163E-08	983826.0625	2.82133605651325E-05
1	302	95.1406617597929	0.162506103515625	0.16253662109375	1.66931152343749E-07	2.71324243072968E-08	973674.625	2.82306009466993E-05
1	303	95.2413697595387	0.152435302734375	0.1524658203125	1.56555175781251E-07	2.38693136367374E-08	973879.125	2.8246889996808E-05
1	304	95.3420777592844	0.142364501953125	0.142364501953125	1.434326171875E-07	2.04197121433936E-08	992553.1875	2.82619967038045E-05
1	305	95.4427857590301	0.132293701171875	0.132354736328125	1.263427734375E-07	1.67220637337095E-08	1047584.5625	2.82755809166702E-05
1	306	95.5434937587759	0.122222900390625	0.122344970703125	1.0406494140625E-07	1.27318218190453E-08	1175659.875	2.8287182431086E-05
1	307	95.6442017585216	0.112152099609375	0.112213134765625	7.476806640625E-08	8.38995894980599E-09	1500816.25	2.82961882476229E-05
1	308	95.7449097582673	0.102081298828125	0.102142333984375	3.54003906249997E-08	3.61587848551892E-09	2885344.75	2.83017343463143E-05
1	309	95.8456177580131	0.092010498046875	0.09210205078125	-1.80053710937503E-08	-1.65833158316531E-09	-5115254	2.83026110992068E-05
1	310	95.9463257577588	0.081939697265625	0.0819091796875	-8.94165039062506E-08	-7.32403249159574E-09	-916040.9375	2.82972014247207E-05
1	311	96.0470337575046	0.071868896484375	0.0718994140625	-1.8585205078125E-07	-1.33626532061726E-08	-386863.71875	2.82833407254657E-05
1	312	96.1477417572503	0.061798095703125	0.06182861328125	-3.1158447265625E-07	-1.92648350605396E-08	-198432.90625	2.82582932413789E-05
1	313	96.248449756996	0.051727294921875	0.051727294921875	-4.72106933593749E-07	-2.44208138155955E-08	-109566.90625	2.82188302662689E-05
1	314	96.3491577567418	0.041656494140625	0.0417236328125	-6.6650390625E-07	-2.78089622440802E-08	-62600.734375	2.81614975392586E-05
1	315	96.4498657564875	0.031585693359375	0.03167724609375	-8.90502929687501E-07	-2.82086798364389E-08	-35572.30859375	2.80830954579869E-05
1	316	96.5505737562332	0.021514892578125	0.0216339111328125	-1.12884521484375E-06	-2.44213360645062E-08	-19164.640625	2.79814139503287E-05
1	317	96.651281755979	0.011444091796875	0.011553955078125	-1.3623046875E-06	-1.5740006631404E-08	-8481.18359375	2.78559746220708E-05
1	318	96.7519897557247	0.001373291015625	0.00144348144531251	-1.568603515625E-06	-2.2642498986869E-09	-920.233459472656	2.77083909168141E-05
1	319	96.8526977554704	-0.008697509765625	-0.0085906982421875	-1.72698974609375E-06	1.48360470575426E-08	4974.37744140625	2.75424445135286E-05
1	320	96.9534057552162	-0.018768310546875	-0.018621826171875	-1.82586669921875E-06	3.40009727040069E-08	10198.8974609375	2.73635450867005E-05
1	321	97.0541137549619	-0.028839111328125	-0.0287506103515625	-1.8658447265625E-06	5.36441717713387E-08	15408.8974609375	2.71776516456157E-05
1	322	97.1548217547077	-0.038909912109375	-0.03878173828125	-1.8560791015625E-06	7.19819723826731E-08	20894.443359375	2.69902375293896E-05
1	323	97.2555297544534	-0.048980712890625	-0.0488555908203125	-1.81121826171875E-06	8.84881359297651E-08	26973.884765625	2.6805575544131E-05
1	324	97.3562377541991	-0.059051513671875	-0.059112548828125	-1.746826171875E-06	1.0325934596267E-07	33839.97265625	2.66264141828287E-05
1	325	97.4569457539449	-0.069122314453125	-0.06903076171875	-1.67327880859375E-06	1.15507710063412E-07	41254.7890625	2.64541977230692E-05
1	326	97.5576537536906	-0.079193115234375	-0.079132080078125	-1.600341796875E-06	1.26638369124521E-07	49446.98828125	2.62893572653411E-05
1	327	97.6583617534363	-0.089263916015625	-0.08917236328125	-1.53076171875E-06	1.36501640213282E-07	58253.58984375	2.61316945397994E-05
1	328	97.7590697531821	-0.099334716796875	-0.099212646484375	-1.4666748046875E-06	1.45512686344773E-07	67644.609375	2.59807602560613E-05
1	329	97.8597777529278	-0.109405517578125	-0.109283447265625	-1.41021728515625E-06	1.54113394046362E-07	77494.0546875	2.58358977589523E-05
1	330	97.9604857526735	-0.119476318359375	-0.119384765625	-1.36016845703125E-06	1.62383386737019E-07	87772.046875	2.5696397642605E-05
1	331	98.0611937524193	-0.129547119140625	-0.12945556640625	-1.317138671875E-06	1.70510929820011E-07	98285.453125	2.55615850619506E-05
1	332	98.161901752165	-0.139617919921875	-0.1395263671875	-1.28021240234375E-06	1.78623380975296E-07	108986.890625	2.54307979048463E-05
1	333	98.2626097519108	-0.149688720703125	-0.1495361328125	-1.24755859375E-06	1.86555084269457E-07	119863.015625	2.53035141213331E-05
1	334	98.3633177516565	-0.159759521484375	-0.15960693359375	-1.2200927734375E-06	1.9473525014746E-07	130815.4140625	2.51792589551769E-05
1	335	98.4640257514022	-0.169830322265625	-0.169677734375	-1.1968994140625E-06	2.0308716841555E-07	141764.40625	2.50575521931751E-05
1	336	98.564733751148	-0.179901123046875	-0.17974853515625	-1.1773681640625E-06	2.11630208468705E-07	152669.78125	2.4937999114627E-05
1	337	98.6654417508937	-0.189971923828125	-0.189788818359375	-1.16119384765625E-06	2.20381608073694E-07	163442.84375	2.48202431976097E-05
1	338	98.7661497506394	-0.200042724609375	-0.199920654296875	-1.14776611328125E-06	2.29462145284742E-07	174182.40625	2.47039770329138E-05
1	339	98.8668577503852	-0.189971923828125	-0.18975830078125	-9.9212646484375E-07	1.88264223766055E-07	191264.234375	2.4596225557616E-05
2	340	98.9675657501309	-0.179901123046875	-0.17974853515625	-8.8775634765625E-07	1.59572891789139E-07	202475.09375	2.45015653490555E-05
2	341	99.0682737498767	-0.169830322265625	-0.169677734375	-8.0535888671875E-07	1.36651465254545E-07	210685.875	2.44163111347007E-05
2	342	99.1689817496224	-0.159759521484375	-0.159698486328125	-7.3577880859375E-07	1.17502757746024E-07	217046.875	2.43387094087666E-05
2	343	99.2696897493681	-0.149688720703125	-0.14959716796875	-6.7413330078125E-07	1.00848431827671E-07	221910.375	2.42677142523462E-05
2	344	99.3703977491139	-0.139617919921875	-0.139495849609375	-6.1920166015625E-07	8.63760618585729E-08	225283.390625	2.4202588974731E-05
2	345	99.4711057488596	-0.129547119140625	-0.129486083984375	-5.68542480468751E-07	7.36183380922739E-08	227750.9375	2.41427824221319E-05
2	346	99.5718137486053	-0.119476318359375	-0.119384765625	-5.2001953125E-07	6.20824067709691E-08	229577.46875	2.40879689954454E-05
2	347	99.6725217483511	-0.109405517578125	-0.10931396484375	-4.72412109375001E-07	5.1641240617073E-08	231395.359375	2.40379958995618E-05
2	348	99.7732297480968	-0.099334716796875	-0.099273681640625	-4.2388916015625E-07	4.20810373213953E-08	234197.265625	2.3992863134481E-05
2	349	99.8739377478425	-0.089263916015625	-0.0892333984375	-3.71704101562501E-07	3.31684191223758E-08	240065.6875	2.39528017118573E-05
2	350	99.9746457475883	-0.079193115234375	-0.0791015625	-3.13720703125001E-07	2.48157974169771E-08	252140.078125	2.39182882069144E-05
2	351	100.075353747334	-0.069122314453125	-0.069091796875	-2.45056152343751E-07	1.69313700837392E-08	281942.71875	2.3890150259831E-05
2	352	100.17606174708	-0.059051513671875	-0.05902099609375	-1.617431640625E-07	9.54624201909837E-09	364905.65625	2.38696666201577E-05
2	353	100.276769746825	-0.048980712890625	-0.0488311767578125	-5.76782226562503E-08	2.81649548128371E-09	846613.75	2.38586180785205E-05
2	354	100.377477746571	-0.038909912109375	-0.0387847900390625	7.32421875E-08	-2.84068280009819E-09	-529541.6875	2.38594020629534E-05
2	355	100.478185746317	-0.028839111328125	-0.0287261962890625	2.3651123046875E-07	-6.79406797488014E-09	-121458.0625	2.38749998970889E-05
2	356	100.578893746063	-0.018768310546875	-0.0186676025390625	4.3212890625E-07	-8.06681033083123E-09	-43199.15234375	2.39086675719591E-05
2	357	100.679601745808	-0.008697509765625	-0.00858154296874999	6.5765380859375E-07	-5.64368463074061E-09	-13048.724609375	2.39635428442853E-05
2	358	100.780309745554	0.001373291015625	0.00150146484374999	9.0179443359375E-07	1.3540125687328E-09	1664.97473144531	2.40420667978469E-05
2	359	100.8810177453	0.011444091796875	0.0115509033203125	1.1480712890625E-06	1.32612605341365E-08	10061.1376953125	2.41452871705405E-05
2	360	100.981725745046	0.021514892578125	0.0216278076171875	1.37359619140625E-06	2.97078752709012E-08	15745.3896484375	2.42722617258551E-05
2	361	101.082433744791	0.031585693359375	0.03165283203125	1.55609130859375E-06	4.92546945451977E-08	20341.2421875	2.4419783585472E-05
2	362	101.183141744537	0.041656494140625	0.041741943359375	1.6845703125E-06	7.03172418070608E-08	24778.986328125	2.45829633058747E-05
2	363	101.283849744283	0.051727294921875	0.051788330078125	1.75262451171875E-06	9.07654964521498E-08	29549.017578125	2.47560401476221E-05
2	364	101.384557744029	0.061798095703125	0.061798095703125	1.76727294921875E-06	1.09214099097699E-07	34968.0546875	2.49332824751036E-05
2	365	101.485265743774	0.071868896484375	0.071868896484375	1.741943359375E-06	1.25191533584257E-07	41257.88671875	2.51099845627323E-05
2	366	101.58597374352	0.081939697265625	0.0819091796875	1.69281005859375E-06	1.38656673698279E-07	48386.51953125	2.52829377132002E-05
2	367	101.686681743266	0.092010498046875	0.092071533203125	1.63116455078125E-06	1.50183822711369E-07	56445.27734375	2.54503138421569E-05
2	368	101.787389743012	0.102081298828125	0.10211181640625	1.56494140625E-06	1.59799000698513E-07	65249.609375	2.5611250748625E-05
2	369	101.888097742757	0.112152099609375	0.112213134765625	1.500244140625E-06	1.68347099815946E-07	74796.5859375	2.57655956374947E-05
2	370	101.988805742503	0.122222900390625	0.12225341796875	1.43951416015625E-06	1.75985519490496E-07	84926.8671875	2.59136231761659E-05
2	371	102.089513742249	0.132293701171875	0.13232421875	1.38397216796875E-06	1.83133039399763E-07	95611.90625	2.60557972069364E-05
2	372	102.190221741994	0.142364501953125	0.142425537109375	1.334228515625E-06	1.90028217161853E-07	106747.484375	2.61926688835956E-05
2	373	102.29092974174	0.152435302734375	0.152496337890625	1.290283203125E-06	1.96763465964978E-07	118188.265625	2.63248239207314E-05
2	374	102.391637741486	0.162506103515625	0.162567138671875	1.2518310546875E-06	2.03506587581614E-07	129863.484375	2.64528298430378E-05
2	375	102.492345741232	0.172576904296875	0.172607421875	1.21673583984375E-06	2.10017617519043E-07	141861.0625	2.65771323029185E-05
2	376	102.593053740977	0.182647705078125	0.1826171875	1.1859130859375E-06	2.16568111000015E-07	153988.671875	2.66981151071377E-05
2	377	102.693761740723	0.192718505859375	0.192779541015625	1.1590576171875E-06	2.23442583546785E-07	166324.390625	2.68161929852795E-05
2	378	102.794469740469	0.202789306640625	0.202880859375	1.1346435546875E-06	2.30197457540271E-07	178805.8125	2.69316897174576E-05
2	379	102.895177740215	0.212860107421875	0.212860107421875	1.11297607421875E-06	2.36908206829867E-07	191253.09375	2.70448672381463E-05
2	380	102.99588573996	0.222930908203125	0.222991943359375	1.09405517578125E-06	2.43965473600838E-07	203821.484375	2.71560002147453E-05
2	381	103.096593739706	0.233001708984375	0.233001708984375	1.0760498046875E-06	2.50721427619283E-07	216534.328125	2.72652741841739E-05
2	382	103.197301739452	0.243072509765625	0.243072509765625	1.060791015625E-06	2.57849109175368E-07	229142.703125	2.73728728643619E-05
2	383	103.298009739198	0.253143310546875	0.253204345703125	1.0467529296875E-06	2.65042388036818E-07	241895.046875	2.74789945251541E-05
2	384	103.398717738943	0.263214111328125	0.263153076171875	1.03424072265625E-06	2.72163617864862E-07	254440.859375	2.75837810477242E-05
2	385	103.499425738689	0.273284912109375	0.273284912109375	1.02203369140625E-06	2.79306362926945E-07	267393.25	2.76873233815422E-05
2	386	103.600133738435	0.283355712890625	0.2833251953125	1.01165771484375E-06	2.86628107915021E-07	280060.34375	2.77897270279936E-05
2	387	103.700841738181	0.293426513671875	0.29339599609375	1.00189208984375E-06	2.93951131880021E-07	292841.90625	2.78911174973473E-05
2	388	103.801549737926	0.303497314453125	0.30340576171875	9.9365234375E-07	3.01479843756169E-07	305344	2.7991602109978E-05
2	389	103.902257737672	0.313568115234375	0.313629150390625	9.86328124999999E-07	3.0934126016291E-07	317976.46875	2.80913009191863E-05
2	390	104.002965737418	0.323638916015625	0.32373046875	9.796142578125E-07	3.17130968596757E-07	330467.28125	2.81902939605061E-05
2	391	104.103673737163	0.333709716796875	0.333740234375	9.7381591796875E-07	3.25001536793934E-07	342713.90625	2.82886576314922E-05
2	392	104.204381736909	0.343780517578125	0.3438720703125	9.686279296875E-07	3.33084074100043E-07	355009.46875	2.83864683296997E-05
2	393	104.305089736655	0.353851318359375	0.3538818359375	9.6435546875E-07	3.41267877956852E-07	366962.03125	2.8483800633694E-05
2	394	104.405797736401	0.363922119140625	0.363922119140625	9.6038818359375E-07	3.49506507291153E-07	378932.3125	2.85807200270938E-05
2	395	104.506505736146	0.373992919921875	0.374053955078125	9.57641601562501E-07	3.58209604200965E-07	390599.125	2.8677299269475E-05
2	396	104.607213735892	0.384063720703125	0.384033203125	9.552001953125E-07	3.66828601272573E-07	402044.71875	2.87736183963716E-05
2	397	104.707921735638	0.394134521484375	0.39410400390625	9.53063964843751E-07	3.7560630516964E-07	413512.65625	2.88697083306033E-05
2	398	104.808629735384	0.404205322265625	0.404205322265625	9.521484375E-07	3.84863454883089E-07	424519.25	2.89656436507357E-05
2	399	104.909337735129	0.414276123046875	0.414215087890625	9.503173828125E-07	3.93635787077073E-07	435870.28125	2.90614389086841E-05
2	400	105.010045734875	0.424346923828125	0.424407958984375	9.4970703125E-07	4.0306321125172E-07	446883.0625	2.91571141133318E-05
2	401	105.110753734621	0.434417724609375	0.4344482421875	9.4879150390625E-07	4.12200790833595E-07	457896.4375	2.92527111014351E-05
2	402	105.211461734367	0.444488525390625	0.44451904296875	9.478759765625E-07	4.21348914869668E-07	468963.3125	2.93482153210789E-05
2	403	105.312169734112	0.454559326171875	0.45458984375	9.48181152343749E-07	4.3103352709295E-07	479433.53125	2.94436886179028E-05
2	404	105.412877733858	0.464630126953125	0.464630126953125	9.48181152343749E-07	4.40553520775211E-07	490022.53125	2.95391782856314E-05
2	405	105.513585733604	0.474700927734375	0.47467041015625	9.48181152343749E-07	4.50073542879181E-07	500611.53125	2.96346679533599E-05
2	406	105.61429373335	0.484771728515625	0.484771728515625	9.490966796875E-07	4.60095236576308E-07	510771.71875	2.97302030958235E-05
2	407	105.715001733095	0.494842529296875	0.49481201171875	9.503173828125E-07	4.70228457061239E-07	520680.8125	2.98258473776514E-05
2	408	105.815709732841	0.504913330078125	0.504913330078125	9.521484375E-07	4.8075241920742E-07	530288.5	2.99216444545891E-05
2	409	105.916417732587	0.514984130859375	0.514892578125	9.54589843750001E-07	4.91511229938624E-07	539386.1875	3.00176561722765E-05
2	410	106.017125732332	0.525054931640625	0.525054931640625	9.564208984375E-07	5.02173520544602E-07	548978.9375	3.01138825307135E-05
2	411	106.117833732078	0.535125732421875	0.53515625	9.58862304687499E-07	5.13141173996701E-07	558115.875	3.02103253488895E-05
2	412	106.218541731824	0.545196533203125	0.545257568359375	9.6221923828125E-07	5.24657309597387E-07	566666.6875	3.030705920537E-05
2	413	106.31924973157	0.555267333984375	0.555267333984375	9.65576171875E-07	5.36152924723865E-07	575063.1875	3.04041313938797E-05
2	414	106.419957731315	0.565338134765625	0.565338134765625	9.6893310546875E-07	5.47774845927052E-07	583464.5625	3.05015419144183E-05
2	415	106.520665731061	0.575408935546875	0.57537841796875	9.72900390625001E-07	5.5978586033234E-07	591405.3125	3.05993198708165E-05
2	416	106.621373730807	0.585479736328125	0.58544921875	9.77478027343751E-07	5.72263729736733E-07	598938.5625	3.06975307466928E-05
2	417	106.722081730553	0.595550537109375	0.59552001953125	9.82055664062501E-07	5.84833799166518E-07	606401.5	3.07962000078987E-05
2	418	106.822789730298	0.605621337890625	0.6055908203125	9.869384765625E-07	5.97680809732992E-07	613605.5	3.08953458443284E-05
2	419	106.923497730044	0.615692138671875	0.6156005859375	9.918212890625E-07	6.10565734859847E-07	620676.9375	3.09949864458758E-05
2	420	107.02420572979	0.625762939453125	0.625823974609375	9.9700927734375E-07	6.23952303158148E-07	627701.25	3.10951327264775E-05
2	421	107.124913729536	0.635833740234375	0.63580322265625	1.002197265625E-06	6.37200230357848E-07	634409.3125	3.11957992380485E-05
2	422	107.225621729281	0.645904541015625	0.645843505859375	1.00738525390625E-06	6.50613174002501E-07	641108.8125	3.12969896185677E-05
2	423	107.326329729027	0.655975341796875	0.65594482421875	1.01226806640625E-06	6.63992011595838E-07	647995.1875	3.13986856781412E-05
2	424	107.427037728773	0.666046142578125	0.666046142578125	1.0174560546875E-06	6.77672687743325E-07	654619.0625	3.15008910547476E-05
2	425	107.527745728519	0.676116943359375	0.676055908203125	1.0223388671875E-06	6.91158220433863E-07	661283.5625	3.16036021104082E-05
2	426	107.628453728264	0.686187744140625	0.6861572265625	1.0272216796875E-06	7.04835542819637E-07	667973.875	3.17068079311866E-05
2	427	107.72916172801	0.696258544921875	0.696197509765625	1.031494140625E-06	7.18123601473053E-07	674940.875	3.18104721372947E-05
2	428	107.829869727756	0.706329345703125	0.7061767578125	1.036376953125E-06	7.31865327452397E-07	681389.875	3.19145983667113E-05
2	429	107.930577727501	0.716400146484375	0.716339111328125	1.04095458984375E-06	7.4567645924617E-07	688156	3.20192011713516E-05
2	430	108.031285727247	0.726470947265625	0.726470947265625	1.0455322265625E-06	7.59548754558637E-07	694833.6875	3.21242623613216E-05
2	431	108.131993726993	0.736541748046875	0.736480712890625	1.04949951171875E-06	7.72936118664802E-07	701744.6875	3.22297564707696E-05
2	432	108.232701726739	0.746612548828125	0.74652099609375	1.053466796875E-06	7.86435066402191E-07	708632.6875	3.23356471199077E-05
2	433	108.333409726484	0.756683349609375	0.7574462890625	1.058349609375E-06	8.01642954684212E-07	715686.3125	3.2441985240439E-05
2	434	108.43411772623	0.766754150390625	0.7672119140625	1.06231689453125E-06	8.15022133338061E-07	722206.25	3.25487708323635E-05
2	435	108.534825725976	0.776824951171875	0.7769775390625	1.0662841796875E-06	8.28478846415237E-07	728677.75	3.26559529639781E-05
2	436	108.635533725722	0.786895751953125	0.78704833984375	1.06964111328125E-06	8.41859218780883E-07	735806.0625	3.27635061694309E-05
2	437	108.736241725467	0.796966552734375	0.79742431640625	1.0736083984375E-06	8.56121403103316E-07	742751.5625	3.28714268107433E-05
2	438	108.836949725213	0.807037353515625	0.80718994140625	1.07666015625E-06	8.6906925389485E-07	749716.5625	3.29797039739788E-05
2	439	108.937657724959	0.817108154296875	0.8172607421875	1.080322265625E-06	8.8290494204557E-07	756497.1875	3.30883158312645E-05
2	440	109.038365724705	0.827178955078125	0.8270263671875	1.083984375E-06	8.96483641099621E-07	762950.5	3.31972951244097E-05
2	441	109.13907372445	0.837249755859375	0.83740234375	1.08734130859375E-06	9.10542155452276E-07	770137.5625	3.33066309394781E-05
2	442	109.239781724196	0.847320556640625	0.84747314453125	1.09130859375E-06	9.24854759887239E-07	776566	3.34163341904059E-05
2	443	109.340489723942	0.857391357421875	0.8575439453125	1.0943603515625E-06	9.38462051180977E-07	783602.9375	3.35263939632569E-05
2	444	109.441197723688	0.867462158203125	0.867919921875	1.097412109375E-06	9.52465825321269E-07	790878.75	3.36367556883488E-05
2	445	109.541905723433	0.877532958984375	0.877685546875	1.1016845703125E-06	9.66932589108183E-07	796675.875	3.37474921252578E-05
2	446	109.642613723179	0.887603759765625	0.887451171875	1.104736328125E-06	9.80399477157334E-07	803314.9375	3.38585923600476E-05
2	447	109.743321722925	0.897674560546875	0.8984375	1.1083984375E-06	9.95826781036158E-07	810572.6875	3.39700309268665E-05
2	448	109.84402972267	0.907745361328125	0.90789794921875	1.112060546875E-06	1.00963745808258E-06	816410.5625	3.40818405675236E-05
2	449	109.944737722416	0.917816162109375	0.91766357421875	1.11602783203125E-06	1.0241379868603E-06	822258.75	3.41940358339343E-05
2	450	110.045445722162	0.927886962890625	0.927734375	1.12030029296875E-06	1.03934098660829E-06	828112.25	3.43066421919502E-05
2	451	110.146153721908	0.937957763671875	0.93780517578125	1.12396240234375E-06	1.05405774775136E-06	834374.125	3.44196487276349E-05
2	452	110.246861721653	0.948028564453125	0.94757080078125	1.1279296875E-06	1.06879315353581E-06	840097.4375	3.45330408890732E-05
2	453	110.347569721399	0.958099365234375	0.95794677734375	1.131591796875E-06	1.08400467979664E-06	846548.0625	3.4646818676265E-05
2	454	110.448277721145	0.968170166015625	0.9686279296875	1.13525390625E-06	1.09963866634644E-06	853225.8125	3.47609638993163E-05
2	455	110.548985720891	0.978240966796875	0.9783935546875	1.13983154296875E-06	1.11520375867258E-06	858366.8125	3.48755238519516E-05
2	456	110.649693720636	0.988311767578125	0.98876953125	1.14410400390625E-06	1.13125520329049E-06	864230.5	3.49905276380014E-05
2	457	110.750401720382	0.998382568359375	0.99822998046875	1.1480712890625E-06	1.14603915335465E-06	869484.3125	3.5105949791614E-05
2	458	110.851109720128	1.00845336914063	1.00830078125	1.15203857421875E-06	1.16160128982301E-06	875231.8125	3.52217684849165E-05
2	459	110.951817719874	1.01852416992188	1.01806640625	1.15631103515625E-06	1.17720139769517E-06	880443.4375	3.53380019078031E-05
2	460	111.052525719619	1.02859497070313	1.0284423828125	1.16058349609375E-06	1.19359322070522E-06	886142.5625	3.54546682501677E-05
2	461	111.153233719365	1.03866577148438	1.03851318359375	1.16485595703125E-06	1.20971822070715E-06	891537.875	3.55717638740316E-05
2	462	111.253941719111	1.04873657226563	1.04888916015625	1.16912841796875E-06	1.22628603094199E-06	897154.8125	3.56892887793947E-05
2	463	111.354649718857	1.05880737304688	1.05865478515625	1.1737060546875E-06	1.24254950151226E-06	901976.125	3.58072575181723E-05
2	464	111.455357718602	1.06887817382813	1.06903076171875	1.17828369140625E-06	1.2596215128724E-06	907277.875	3.59256919182371E-05
2	465	111.556065718348	1.07894897460938	1.0784912109375	1.182861328125E-06	1.2757054719259E-06	911764.75	3.60445847036317E-05
2	466	111.656773718094	1.08901977539063	1.0888671875	1.1871337890625E-06	1.29263105463906E-06	917223.6875	3.61639213224407E-05
2	467	111.757481717839	1.09909057617188	1.09954833984375	1.19232177734375E-06	1.31101535316702E-06	922190.9375	3.62837381544523E-05
2	468	111.858189717585	1.10916137695313	1.1090087890625	1.19720458984375E-06	1.32771037897328E-06	926331.875	3.6404060665518E-05
2	469	111.958897717331	1.11923217773438	1.11968994140625	1.202392578125E-06	1.34630693082727E-06	931218.25	3.6524888855638E-05
2	470	112.059605717077	1.12930297851563	1.1297607421875	1.20758056640625E-06	1.36427706820541E-06	935557.25	3.66462409147061E-05
2	471	112.160313716822	1.13937377929688	1.1395263671875	1.21368408203125E-06	1.38302505092724E-06	938898.6875	3.67681604984682E-05
2	472	112.261021716568	1.14944458007813	1.14959716796875	1.219482421875E-06	1.4019135505805E-06	942692.6875	3.68906803487334E-05
2	473	112.361729716314	1.15951538085938	1.1590576171875	1.2261962890625E-06	1.42123201385402E-06	945246.4375	3.70138295693323E-05
2	474	112.46243771606	1.16958618164063	1.16973876953125	1.2335205078125E-06	1.44289674608444E-06	948292.9375	3.71376881957985E-05
2	475	112.563145715805	1.17965698242188	1.1798095703125	1.24176025390625E-06	1.46504055464902E-06	950110.625	3.72623289877083E-05
2	476	112.663853715551	1.18972778320313	1.18988037109375	1.25030517578125E-06	1.48771346175636E-06	951672	3.73878137907013E-05
2	477	112.764561715297	1.19979858398438	1.19964599609375	1.2591552734375E-06	1.51054064190248E-06	952738.75	3.75141753465869E-05
2	478	112.865269715043	1.20986938476563	1.20941162109375	1.26922607421875E-06	1.53501673594292E-06	952873.3125	3.76414900529198E-05
2	479	112.965977714788	1.21994018554688	1.2200927734375	1.279296875E-06	1.56086082370166E-06	953721.375	3.77698161173612E-05
2	480	113.066685714534	1.23001098632813	1.22955322265625	1.29119873046875E-06	1.58759758051019E-06	952257.1875	3.78992517653387E-05
2	481	113.16739371428	1.24008178710938	1.240234375	1.30340576171875E-06	1.61652860697359E-06	951533.625	3.8029898860259E-05
2	482	113.268101714026	1.25015258789063	1.25030517578125	1.31683349609375E-06	1.6464437067043E-06	949478.5625	3.81618410756346E-05
2	483	113.368809713771	1.26022338867188	1.2603759765625	1.33148193359375E-06	1.67816790508368E-06	946596.375	3.82951948267873E-05
2	484	113.469517713517	1.27029418945313	1.27044677734375	1.34735107421875E-06	1.71173780927347E-06	942921.875	3.84300838049967E-05
2	485	113.570225713263	1.28036499023438	1.280517578125	1.36474609375E-06	1.74758122284402E-06	938282.6875	3.85666498914361E-05
2	486	113.670933713008	1.29043579101563	1.2908935546875	1.38275146484375E-06	1.78498487457546E-06	933568.8125	3.87049949495122E-05
2	487	113.771641712754	1.30050659179688	1.3006591796875	1.402587890625E-06	1.82428868811257E-06	927328.125	3.8845249946462E-05
2	488	113.8723497125	1.31057739257813	1.31011962890625	1.4239501953125E-06	1.86554507308756E-06	920060.0625	3.8987574953353E-05
2	489	113.973057712246	1.32064819335938	1.3201904296875	1.4471435546875E-06	1.910505034175E-06	912273.3125	3.91321482311469E-05
2	490	114.073765711991	1.33071899414063	1.33087158203125	1.47064208984375E-06	1.9572357814468E-06	904959.5625	3.92790680052713E-05
2	491	114.174473711737	1.34078979492188	1.3409423828125	1.49566650390625E-06	2.00560248231341E-06	896551.75	3.94284361391328E-05
2	492	114.275181711483	1.35086059570313	1.3507080078125	1.52313232421875E-06	2.05730702873552E-06	886796.25	3.95804418076295E-05
2	493	114.375889711229	1.36093139648438	1.36077880859375	1.55120849609375E-06	2.110851710313E-06	877237.875	3.97352487198077E-05
2	494	114.476597710974	1.37100219726563	1.370849609375	1.58203125E-06	2.16872695091297E-06	866512.375	3.98930205847137E-05
2	495	114.57730571072	1.38107299804688	1.3812255859375	1.6168212890625E-06	2.23319489123242E-06	854284.6875	4.00540957343765E-05
2	496	114.678013710466	1.39114379882813	1.3909912109375	1.6558837890625E-06	2.30331966122321E-06	840029.5625	4.02188888983801E-05
2	497	114.778721710212	1.40121459960938	1.40106201171875	1.70074462890625E-06	2.38284860643034E-06	823793.3125	4.03879093937576E-05
2	498	114.879429709957	1.41128540039063	1.4117431640625	1.75323486328125E-06	2.47511729867256E-06	805221.9375	4.05618302465882E-05
2	499	114.980137709703	1.42135620117188	1.4215087890625	1.81304931640625E-06	2.57726537711278E-06	784043.125	4.07414081564639E-05
2	500	115.080845709449	1.43142700195313	1.43157958984375	1.88140869140625E-06	2.69338625003002E-06	760908.375	4.09274362027645E-05
2	501	115.181553709195	1.44149780273438	1.44134521484375	1.9586181640625E-06	2.82304495158314E-06	735899	4.11207984143402E-05
2	502	115.28226170894	1.45156860351563	1.45172119140625	2.04559326171875E-06	2.96963094115199E-06	709682.25	4.13224261137657E-05
2	503	115.382969708686	1.46163940429688	1.46148681640625	2.1417236328125E-06	3.13010082209075E-06	682388.125	4.15332760894671E-05
2	504	115.483677708432	1.47171020507813	1.47186279296875	2.25006103515625E-06	3.31178102896956E-06	654143.5	4.17544179072138E-05
2	505	115.584385708177	1.48178100585938	1.4813232421875	2.37030029296875E-06	3.51118092112301E-06	624951.6875	4.19870739278849E-05
2	506	115.685093707923	1.49185180664063	1.49200439453125	2.50213623046875E-06	3.73319812752015E-06	596292.25	4.22324192186352E-05
2	507	115.785801707669	1.50192260742188	1.50238037109375	2.64007568359375E-06	3.96639779864927E-06	569067.1875	4.24913487222511E-05
2	508	115.886509707415	1.49185180664063	1.49169921875	2.25372314453125E-06	3.36187690663792E-06	661882.1875	4.27377708547283E-05
2	509	115.98721770716	1.48178100585938	1.48193359375	1.9683837890625E-06	2.91701394417032E-06	752868.25	4.29503706982359E-05
2	510	116.087925706906	1.47171020507813	1.47216796875	1.74407958984375E-06	2.56757812167052E-06	844094.5	4.31373082392383E-05
2	511	116.188633706652	1.46163940429688	1.4617919921875	1.56158447265625E-06	2.28271164814942E-06	936095.375	4.33037639595568E-05
2	512	116.289341706398	1.45156860351563	1.4520263671875	1.412353515625E-06	2.05077458304004E-06	1028089.875	4.34535140811931E-05
2	513	116.390049706143	1.44149780273438	1.441650390625	1.28875732421875E-06	1.85793749096774E-06	1118636.125	4.35895235568751E-05
2	514	116.490757705889	1.43142700195313	1.4312744140625	1.1865234375E-06	1.69824056683865E-06	1206275.75	4.37141643487848E-05
2	515	116.591465705635	1.42135620117188	1.42120361328125	1.10198974609375E-06	1.56615180912922E-06	1289670.5	4.38294009654783E-05
2	516	116.692173705381	1.41128540039063	1.4117431640625	1.03179931640625E-06	1.45663568673626E-06	1368234.25	4.39368450315669E-05
2	517	116.792881705126	1.40121459960938	1.40106201171875	9.72900390625001E-07	1.36309370191157E-06	1440087.875	4.40377880295273E-05
2	518	116.893589704872	1.39114379882813	1.39068603515625	9.234619140625E-07	1.28424551348871E-06	1505948.5	4.41332776972558E-05
2	519	116.994297704618	1.38107299804688	1.3812255859375	8.81347656250001E-07	1.21733989999484E-06	1567174.5	4.42241580458358E-05
2	520	117.095005704364	1.37100219726563	1.37115478515625	8.453369140625E-07	1.15908778752782E-06	1622021.75	4.43111057393253E-05
2	521	117.195713704109	1.36093139648438	1.36077880859375	8.13903808593749E-07	1.10754308479954E-06	1671916	4.43946519226301E-05
2	522	117.296421703855	1.35086059570313	1.35101318359375	7.8704833984375E-07	1.06331265214976E-06	1716556.875	4.44752695329953E-05
2	523	117.397129703601	1.34078979492188	1.3409423828125	7.62939453125E-07	1.02305773452827E-06	1757600.125	4.45533150923438E-05
2	524	117.497837703346	1.33071899414063	1.33056640625	7.427978515625E-07	9.88341867014242E-07	1791290	4.46291342086624E-05
2	525	117.598545703092	1.32064819335938	1.3201904296875	7.2479248046875E-07	9.56864028012205E-07	1821473.75	4.47030361101497E-05
2	526	117.699253702838	1.31057739257813	1.31072998046875	7.0953369140625E-07	9.30007047372783E-07	1847311.875	4.47752572654281E-05
2	527	117.799961702584	1.30050659179688	1.3006591796875	6.9549560546875E-07	9.04602757145767E-07	1870118.5	4.48460086772684E-05
2	528	117.900669702329	1.29043579101563	1.29058837890625	6.82983398437501E-07	8.8145043264376E-07	1889633.625	4.49154213129077E-05
2	529	118.001377702075	1.28036499023438	1.28082275390625	6.72607421875E-07	8.61490889292327E-07	1904265	4.49836807092652E-05
2	530	118.102085701821	1.27029418945313	1.270751953125	6.63146972656251E-07	8.42695328628906E-07	1916244.75	4.50509396614507E-05
2	531	118.202793701567	1.26022338867188	1.26068115234375	6.53076171875E-07	8.2332076090097E-07	1930373.875	4.51172163593583E-05
2	532	118.303501701312	1.25015258789063	1.25030517578125	6.44531249999999E-07	8.05860736363684E-07	1939867.5	4.51825580967125E-05
2	533	118.404209701058	1.24008178710938	1.240234375	6.3629150390625E-07	7.89150533364591E-07	1949160.75	4.52470521850046E-05
2	534	118.504917700804	1.23001098632813	1.22955322265625	6.29272460937499E-07	7.73723968450213E-07	1953928.25	4.53107786597684E-05
2	535	118.60562570055	1.21994018554688	1.2200927734375	6.21948242187501E-07	7.58834517000651E-07	1961727.25	4.53737811767496E-05
2	536	118.706333700295	1.20986938476563	1.21002197265625	6.146240234375E-07	7.43708540085208E-07	1968719	4.54360488220118E-05
2	537	118.807041700041	1.19979858398438	1.19964599609375	6.08215332031251E-07	7.29643090835452E-07	1972403.5	4.54976216133218E-05
2	538	118.907749699787	1.18972778320313	1.18988037109375	6.0150146484375E-07	7.15714747911989E-07	1978183.75	4.55585359304678E-05
2	539	119.008457699533	1.17965698242188	1.17950439453125	5.950927734375E-07	7.01914530054637E-07	1982051.25	4.56187881354708E-05
2	540	119.109165699278	1.16958618164063	1.16973876953125	5.88073730468749E-07	6.87892622863728E-07	1989102.375	4.56783673143946E-05
2	541	119.209873699024	1.15951538085938	1.15966796875	5.816650390625E-07	6.74538284783921E-07	1993704.25	4.57372661912814E-05
2	542	119.31058169877	1.14944458007813	1.14898681640625	5.7525634765625E-07	6.60961916310043E-07	1997347.625	4.57955247838981E-05
2	543	119.411289698515	1.13937377929688	1.1395263671875	5.68542480468751E-07	6.47869114800415E-07	2004294.125	4.58531176263932E-05
2	544	119.511997698261	1.12930297851563	1.12945556640625	5.615234375E-07	6.34215780337399E-07	2011413	4.59100228908937E-05
2	545	119.612705698007	1.11923217773438	1.119384765625	5.5511474609375E-07	6.21387016508379E-07	2016492.5	4.59662478533573E-05
2	546	119.713413697753	1.10916137695313	1.10870361328125	5.48095703125E-07	6.07675644914707E-07	2022828.625	4.60217997897416E-05
2	547	119.814121697498	1.09909057617188	1.09954833984375	5.4168701171875E-07	5.95611027165432E-07	2029859.25	4.60766750620678E-05
2	548	119.914829697244	1.08901977539063	1.08917236328125	5.34667968749999E-07	5.82345535349305E-07	2037100.5	4.61308736703359E-05
2	549	120.01553769699	1.07894897460938	1.0784912109375	5.279541015625E-07	5.69393876048707E-07	2042774.5	4.61843810626306E-05
2	550	120.116245696736	1.06887817382813	1.06903076171875	5.206298828125E-07	5.56569375476101E-07	2053341.125	4.62371826870367E-05
2	551	120.216953696481	1.05880737304688	1.0589599609375	5.13610839843751E-07	5.43893293070141E-07	2061794.5	4.62892603536602E-05
2	552	120.317661696227	1.04873657226563	1.048583984375	5.06591796875E-07	5.31204022991005E-07	2069879.5	4.63406322523952E-05
2	553	120.418369695973	1.03866577148438	1.03851318359375	4.99267578125E-07	5.18495937740227E-07	2080073.375	4.63912801933475E-05
2	554	120.519077695719	1.02859497070313	1.02874755859375	4.92248535156251E-07	5.0639948767639E-07	2089894.5	4.6441207814496E-05
2	555	120.619785695464	1.01852416992188	1.0186767578125	4.8492431640625E-07	4.93981133331545E-07	2100692.25	4.64904114778619E-05
2	556	120.72049369521	1.00845336914063	1.00799560546875	4.779052734375E-07	4.81726374346181E-07	2109195.5	4.6538894821424E-05
2	557	120.821201694956	0.998382568359375	0.99853515625	4.70886230468751E-07	4.70196454216421E-07	2120544.5	4.65866687591188E-05
2	558	120.921909694702	0.988311767578125	0.9881591796875	4.638671875E-07	4.58374586287391E-07	2130263.25	4.66337369289249E-05
2	559	121.022617694447	0.978240966796875	0.97808837890625	4.56848144531249E-07	4.46837844947368E-07	2140948.5	4.66800993308425E-05
2	560	121.123325694193	0.968170166015625	0.968017578125	4.5013427734375E-07	4.3573788843787E-07	2150508.5	4.67257705167867E-05
2	561	121.224033693939	0.958099365234375	0.958251953125	4.43420410156251E-07	4.24908449758732E-07	2161046.25	4.67707650386728E-05
2	562	121.324741693684	0.948028564453125	0.9478759765625	4.37011718749999E-07	4.14232914636159E-07	2168994.5	4.68150974484161E-05
2	563	121.42544969343	0.937957763671875	0.9381103515625	4.29687500000001E-07	4.03094304601836E-07	2183238.5	4.68587386421859E-05
2	564	121.526157693176	0.927886962890625	0.92803955078125	4.23278808593749E-07	3.92819458738813E-07	2192501.75	4.69016886199825E-05
2	565	121.626865692922	0.917816162109375	0.91796875	4.1656494140625E-07	3.82393608333587E-07	2203663	4.69439764856361E-05
2	566	121.727573692667	0.907745361328125	0.90789794921875	4.09851074218751E-07	3.72102931578411E-07	2215190	4.69855913252104E-05
2	567	121.828281692413	0.897674560546875	0.8978271484375	4.03747558593751E-07	3.62495512717942E-07	2223734	4.70265586045571E-05
2	568	121.928989692159	0.887603759765625	0.88775634765625	3.96728515625E-07	3.52198242126178E-07	2237692.5	4.70668674097396E-05
2	569	122.029697691905	0.877532958984375	0.877685546875	3.9031982421875E-07	3.42578061918175E-07	2248631.75	4.71064995508641E-05
2	570	122.13040569165	0.867462158203125	0.86761474609375	3.83911132812501E-07	3.33086944692695E-07	2259936.5	4.71454841317609E-05
2	571	122.231113691396	0.857391357421875	0.8575439453125	3.77807617187501E-07	3.23986625971884E-07	2269790	4.71838393423241E-05
2	572	122.331821691142	0.847320556640625	0.84716796875	3.7109375E-07	3.14378723942355E-07	2282894.75	4.72215506306384E-05
2	573	122.432529690888	0.837249755859375	0.83740234375	3.643798828125E-07	3.05132545008746E-07	2298157.5	4.72585816169158E-05
2	574	122.533237690633	0.827178955078125	0.8270263671875	3.57971191406251E-07	2.96051609893766E-07	2310315.5	4.72949577670079E-05
2	575	122.633945690379	0.817108154296875	0.81695556640625	3.509521484375E-07	2.86712321440064E-07	2327826	4.73306536150631E-05
2	576	122.734653690125	0.807037353515625	0.806884765625	3.4454345703125E-07	2.78006865528369E-07	2341895.5	4.73656727990601E-05
2	577	122.835361689871	0.796966552734375	0.797119140625	3.37829589843749E-07	2.69290438836833E-07	2359530.25	4.74000335088931E-05
2	578	122.936069689616	0.786895751953125	0.7867431640625	3.30200195312499E-07	2.59782723333046E-07	2382625	4.74336738989223E-05
2	579	123.036777689362	0.776824951171875	0.7769775390625	3.2379150390625E-07	2.51578711640832E-07	2399623.25	4.74666048830841E-05
2	580	123.137485689108	0.766754150390625	0.7672119140625	3.173828125E-07	2.43499869156949E-07	2417307.75	4.74988883070182E-05
2	581	123.238193688853	0.756683349609375	0.7568359375	3.10668945312501E-07	2.3512541247328E-07	2436149.5	4.75305132567883E-05
2	582	123.338901688599	0.746612548828125	0.746490478515625	3.04260253906249E-07	2.27127387120163E-07	2453460.5	4.75614797323942E-05
2	583	123.439609688345	0.736541748046875	0.736480712890625	2.978515625E-07	2.1936192240446E-07	2472643.5	4.75917986477725E-05
2	584	123.540317688091	0.726470947265625	0.726409912109375	2.92053222656249E-07	2.12150354172991E-07	2487252	4.76215027447324E-05
2	585	123.641025687836	0.716400146484375	0.71636962890625	2.8533935546875E-07	2.04408451054405E-07	2510588.25	4.76505738333799E-05
2	586	123.741733687582	0.706329345703125	0.706268310546875	2.7923583984375E-07	1.97215413777485E-07	2529289.75	4.76790046377573E-05
2	587	123.842441687328	0.696258544921875	0.69622802734375	2.74047851562501E-07	1.9079978130776E-07	2540534.75	4.7706864279462E-05
2	588	123.943149687074	0.686187744140625	0.686187744140625	2.685546875E-07	1.84278931669724E-07	2555113.75	4.77341855003033E-05
2	589	124.043857686819	0.676116943359375	0.67608642578125	2.63366699218751E-07	1.78058655819768E-07	2567091.5	4.77609719382599E-05
2	590	124.144565686565	0.666046142578125	0.665985107421875	2.58483886718749E-07	1.7214641445662E-07	2576505.5	4.77872490591835E-05
2	591	124.245273686311	0.655975341796875	0.65594482421875	2.5360107421875E-07	1.66348300467689E-07	2586522.5	4.78130350529682E-05
2	592	124.345981686057	0.645904541015625	0.6458740234375	2.49328613281249E-07	1.61034861889675E-07	2590453	4.78383590234444E-05
2	593	124.446689685802	0.635833740234375	0.63580322265625	2.45056152343751E-07	1.55807498458671E-07	2594520.5	4.78632537124213E-05
2	594	124.547397685548	0.625762939453125	0.625732421875	2.410888671875E-07	1.50857118796921E-07	2595443.25	4.78877300338354E-05
2	595	124.648105685294	0.615692138671875	0.61566162109375	2.37121582031249E-07	1.45986660982089E-07	2596396.5	4.79118098155595E-05
2	596	124.74881368504	0.605621337890625	0.6055908203125	2.34069824218749E-07	1.4175053308918E-07	2587223	4.79355367133394E-05
2	597	124.849521684785	0.595550537109375	0.595550537109375	2.30712890625E-07	1.37401187316755E-07	2581349.25	4.79589398310054E-05
2	598	124.950229684531	0.585479736328125	0.585479736328125	2.276611328125E-07	1.33290981807477E-07	2571715.75	4.79820228065364E-05
2	599	125.050937684277	0.575408935546875	0.575408935546875	2.24609375E-07	1.29242238244842E-07	2561820.75	4.80047965538688E-05
2	600	125.151645684022	0.565338134765625	0.5653076171875	2.2247314453125E-07	1.25765751590734E-07	2541015.25	4.80273083667271E-05
2	601	125.252353683768	0.555267333984375	0.555206298828125	2.20336914062499E-07	1.22332437513251E-07	2519806	4.80496055388357E-05
2	602	125.353061683514	0.545196533203125	0.545166015625	2.178955078125E-07	1.18789223790827E-07	2501960.75	4.80716735182796E-05
2	603	125.45376968326	0.535125732421875	0.535125732421875	2.16064453125001E-07	1.15621645591091E-07	2476695	4.8093523218995E-05
2	604	125.554477683005	0.525054931640625	0.52508544921875	2.1392822265625E-07	1.12330596380161E-07	2454493.75	4.81151764688548E-05
2	605	125.655185682751	0.514984130859375	0.514984130859375	2.1209716796875E-07	1.09226675704122E-07	2428057.5	4.81366296298802E-05
2	606	125.755893682497	0.504913330078125	0.50494384765625	2.09960937500001E-07	1.06018482881609E-07	2404942	4.81578790640924E-05
2	607	125.856601682243	0.494842529296875	0.49481201171875	2.08129882812499E-07	1.02985161731795E-07	2377419.5	4.81789320474491E-05
2	608	125.957309681988	0.484771728515625	0.484710693359375	2.0599365234375E-07	9.98473197455496E-08	2353037.25	4.81997849419713E-05
2	609	126.058017681734	0.474700927734375	0.474639892578125	2.05078124999999E-07	9.73382583424609E-08	2314434.5	4.82204850413837E-05
2	610	126.15872568148	0.464630126953125	0.464599609375	2.0294189453125E-07	9.42867259823288E-08	2289323.25	4.82410287077073E-05
2	611	126.259433681226	0.454559326171875	0.45458984375	2.00805664062501E-07	9.12842139655368E-08	2263829.75	4.82613613712601E-05
2	612	126.360141680971	0.444488525390625	0.44451904296875	1.9866943359375E-07	8.83123405515107E-08	2237481	4.82814757560845E-05
2	613	126.460849680717	0.434417724609375	0.434417724609375	1.9683837890625E-07	8.5510080793938E-08	2206976.75	4.83013900520746E-05
2	614	126.561557680463	0.424346923828125	0.42431640625	1.94396972656249E-07	8.24858190640043E-08	2182731.75	4.8321089707315E-05
2	615	126.662265680209	0.414276123046875	0.414306640625	1.91650390625001E-07	7.94020280636687E-08	2161783.5	4.83405310660601E-05
2	616	126.762973679954	0.404205322265625	0.404296875	1.8890380859375E-07	7.63732117547988E-08	2140226.25	4.8359692300437E-05
2	617	126.8636816797	0.394134521484375	0.3941650390625	1.87072753906251E-07	7.37375316361977E-08	2107014.75	4.83786243421491E-05
2	618	126.964389679446	0.384063720703125	0.384063720703125	1.84326171875E-07	7.07929928012163E-08	2083609.25	4.83973271911964E-05
2	619	127.065097679191	0.373992919921875	0.3740234375	1.81884765625E-07	6.80291591947935E-08	2056375.875	4.84157681057695E-05
2	620	127.165805678937	0.363922119140625	0.363922119140625	1.8035888671875E-07	6.56365841678053E-08	2017766.5	4.84340052935295E-05
2	621	127.266513678683	0.353851318359375	0.353851318359375	1.77917480468751E-07	6.29563317033899E-08	1988850.875	4.84520460304338E-05
2	622	127.367221678429	0.343780517578125	0.343719482421875	1.7578125E-07	6.04194383413414E-08	1955382.125	4.84698575746734E-05
2	623	127.467929678174	0.333709716796875	0.333709716796875	1.739501953125E-07	5.80488652701661E-08	1918421.125	4.84874690300785E-05
2	624	127.56863767792	0.323638916015625	0.323638916015625	1.72119140625E-07	5.5704447277094E-08	1880319.25	4.85048949485645E-05
2	625	127.669345677666	0.313568115234375	0.313629150390625	1.69982910156249E-07	5.33115951384389E-08	1845062.875	4.8522120778216E-05
2	626	127.770053677412	0.303497314453125	0.303466796875	1.6754150390625E-07	5.0843283361246E-08	1811293.25	4.85391174152028E-05
2	627	127.870761677157	0.293426513671875	0.29339599609375	1.65710449218751E-07	4.86187801129745E-08	1770534.125	4.85558957734611E-05
2	628	127.971469676903	0.283355712890625	0.2833251953125	1.629638671875E-07	4.6171766854286E-08	1738576.875	4.85724449390545E-05
2	629	128.072177676649	0.273284912109375	0.273284912109375	1.605224609375E-07	4.38683649406357E-08	1702471.5	4.85887358081527E-05
2	630	128.172885676395	0.263214111328125	0.263214111328125	1.57775878906249E-07	4.15288354815857E-08	1668278.625	4.86047611047979E-05
2	631	128.27359367614	0.253143310546875	0.253173828125	1.54724121093749E-07	3.91720966774756E-08	1636291.875	4.86204990011174E-05
2	632	128.374301675886	0.243072509765625	0.243072509765625	1.5106201171875E-07	3.67190224892511E-08	1609090.875	4.8635894927429E-05
2	633	128.475009675632	0.233001708984375	0.2330322265625	1.47705078125E-07	3.44200437041309E-08	1577685.875	4.86509416077752E-05
2	634	128.575717675378	0.222930908203125	0.222930908203125	1.4373779296875E-07	3.20435979972444E-08	1550955.375	4.8665617214283E-05
2	635	128.676425675123	0.212860107421875	0.21282958984375	1.39465332031249E-07	2.96823490231191E-08	1526039.375	4.8679874453228E-05
2	636	128.777133674869	0.202789306640625	0.202789306640625	1.3397216796875E-07	2.71681219743414E-08	1513667.5	4.86936442030128E-05
2	637	128.877841674615	0.192718505859375	0.192718505859375	1.29089355468751E-07	2.48779077338668E-08	1492907.75	4.87068900838494E-05
2	638	128.97854967436	0.182647705078125	0.182708740234375	1.22985839843751E-07	2.24705871687547E-08	1485608	4.87195829919074E-05
2	639	129.079257674106	0.172576904296875	0.172576904296875	1.15356445312501E-07	1.99078584728341E-08	1496031.75	4.8731584683992E-05
2	640	129.179965673852	0.162506103515625	0.162567138671875	1.068115234375E-07	1.73640426481825E-08	1522000	4.87427714688238E-05
2	641	129.280673673598	0.152435302734375	0.152496337890625	9.613037109375E-08	1.4659529590233E-08	1586349.25	4.87529905512929E-05
2	642	129.381381673343	0.142364501953125	0.14251708984375	8.23974609375E-08	1.17430456469947E-08	1729629.75	4.87619799969252E-05
2	643	129.482089673089	0.132293701171875	0.132354736328125	6.53076171875003E-08	8.64377280862527E-09	2026635.5	4.87694196635857E-05
2	644	129.582797672835	0.122222900390625	0.12225341796875	4.2724609375E-08	5.22322940454956E-09	2861428.75	4.87748584419023E-05
2	645	129.683505672581	0.112152099609375	0.1121826171875	1.220703125E-08	1.36941669115487E-09	9190000	4.87776233057957E-05
2	646	129.784213672326	0.102081298828125	0.102142333984375	-2.899169921875E-08	-2.96127966592508E-09	-3523158	4.87767792947125E-05
2	647	129.884921672072	0.092010498046875	0.092132568359375	-8.51440429687503E-08	-7.84453924040918E-09	-1082078.875	4.87710312881973E-05
2	648	129.985629671818	0.081939697265625	0.08197021484375	-1.59912109375E-07	-1.31080293286345E-08	-512595.4375	4.87586912640836E-05
2	649	130.086337671564	0.071868896484375	0.0718994140625	-2.60009765624999E-07	-1.86945499081048E-08	-276525.84375	4.87375473312568E-05
2	650	130.187045671309	0.061798095703125	0.06182861328125	-3.91235351562499E-07	-2.41895392605329E-08	-158034.328125	4.87047545902897E-05
2	651	130.287753671055	0.051727294921875	0.0517578125	-5.5694580078125E-07	-2.88262960168595E-08	-92931.5078125	4.86570097564254E-05
2	652	130.388461670801	0.041656494140625	0.0417236328125	-7.5714111328125E-07	-3.15906767411889E-08	-55106.8125	4.8590842197882E-05
2	653	130.489169670547	0.031585693359375	0.03167724609375	-9.8480224609375E-07	-3.11958210374996E-08	-32166.099609375	4.85031268908642E-05
2	654	130.589877670292	0.021514892578125	0.0215789794921875	-1.22467041015625E-06	-2.64271378114245E-08	-17620.232421875	4.83918702229857E-05
2	655	130.690585670038	0.011444091796875	0.0115386962890625	-1.45782470703125E-06	-1.6821395831812E-08	-7915.009765625	4.82567957078572E-05
2	656	130.791293669784	0.001373291015625	0.00150451660156251	-1.65924072265625E-06	-2.49635512261648E-09	-906.750061035156	4.80998387502041E-05
2	657	130.892001669529	-0.008697509765625	-0.00859985351562501	-1.81060791015625E-06	1.55709614091393E-08	4749.705078125	4.79251175420359E-05
2	658	130.992709669275	-0.018768310546875	-0.0186920166015625	-1.90185546875E-06	3.55495117787541E-08	9828.3056640625	4.77381800010335E-05
2	659	131.093417669021	-0.028839111328125	-0.028729248046875	-1.93389892578125E-06	5.55594610318622E-08	14855.611328125	4.75450360681862E-05
2	660	131.194125668767	-0.038909912109375	-0.0388031005859375	-1.9183349609375E-06	7.44373380712204E-08	20227.490234375	4.7351059038192E-05
2	661	131.294833668512	-0.048980712890625	-0.0488800048828125	-1.86920166015625E-06	9.13665800794661E-08	26150.205078125	4.71603416372091E-05
2	662	131.395541668258	-0.059051513671875	-0.058990478515625	-1.80267333984375E-06	1.06340557692874E-07	32723.888671875	4.69754486402962E-05
2	663	131.496249668004	-0.069122314453125	-0.069061279296875	-1.7291259765625E-06	1.19415659582955E-07	39939.9921875	4.67976096842904E-05
2	664	131.59695766775	-0.079193115234375	-0.079132080078125	-1.6552734375E-06	1.30985227997371E-07	47806.046875	4.6627192205051E-05
2	665	131.697665667495	-0.089263916015625	-0.08917236328125	-1.58599853515625E-06	1.41427236144409E-07	56224.74609375	4.64639815618284E-05
2	666	131.798373667241	-0.099334716796875	-0.0992431640625	-1.52313232421875E-06	1.51160463701672E-07	65157.28515625	4.6307424781844E-05
2	667	131.899081666987	-0.109405517578125	-0.1092529296875	-1.46759033203125E-06	1.60338544219485E-07	74443.75	4.61568270111457E-05
2	668	131.999789666733	-0.119476318359375	-0.119384765625	-1.41876220703125E-06	1.69378594705449E-07	84147.1328125	4.60114897578023E-05
2	669	132.100497666478	-0.129547119140625	-0.12945556640625	-1.3763427734375E-06	1.78175227460997E-07	94057.6484375	4.58707436337136E-05
2	670	132.201205666224	-0.139617919921875	-0.139495849609375	-1.34033203125E-06	1.86970751769877E-07	104075.59375	4.57339483546093E-05
2	671	132.30191366597	-0.149688720703125	-0.14959716796875	-1.309814453125E-06	1.9594452282945E-07	114212.4921875	4.56005036539864E-05
2	672	132.402621665716	-0.159759521484375	-0.15966796875	-1.2835693359375E-06	2.04944896609049E-07	124393.7265625	4.5469914766727E-05
2	673	132.503329665461	-0.169830322265625	-0.169647216796875	-1.2615966796875E-06	2.14026357525654E-07	134470.25	4.53417560493108E-05
2	674	132.604037665207	-0.179901123046875	-0.17974853515625	-1.24359130859375E-06	2.23533717758073E-07	144539.875	4.52156091341749E-05
2	675	132.704745664953	-0.189971923828125	-0.189788818359375	-1.2286376953125E-06	2.33181680187045E-07	154470.953125	4.50911247753538E-05
2	676	132.805453664698	-0.200042724609375	-0.199951171875	-1.2164306640625E-06	2.43226736529323E-07	164375.3125	4.49680046585854E-05
2	677	132.906161664444	-0.189971923828125	-0.1898193359375	-1.05621337890625E-06	2.0048972260156E-07	179716.84375	4.48535683972295E-05
