Potential - Start -0.2 V, Upper Vertex 1.5 V, Lower Vertex -0.2 V, Stop -0.19 V; Scan - # end cross 5, Rate 0.1 Vps, Step 0.01 V 
Scan	Index	Time (s)	Potential applied (V)	WE(1).Potential (V)	WE(1).Current (A)	WE(1).Power (W)	WE(1).Resistance (Ω)	WE(1).Charge (C)
1	1	65.9985778333696	-0.189971923828125	-0.1898193359375	-1.99279785156251E-07	3.78271565182331E-08	952526.8125	0
1	2	66.0992858331153	-0.179901123046875	-0.17974853515625	-1.65405273437499E-07	2.97313551556044E-08	1086715.875	-1.83633517281123E-08
1	3	66.1999938328611	-0.169830322265625	-0.169708251953125	-1.3916015625E-07	2.36166250999759E-08	1219517.625	-3.36994396832324E-08
1	4	66.3007018326068	-0.159759521484375	-0.15966796875	-1.1566162109375E-07	1.84674568970422E-08	1380475	-4.6530733044392E-08
1	5	66.4014098323526	-0.149688720703125	-0.14959716796875	-9.55200195312506E-08	1.42895233423701E-08	1566134.25	-5.71645735192305E-08
1	6	66.5021178320983	-0.139617919921875	-0.13946533203125	-7.62939453125E-08	1.06403605926175E-08	1828000	-6.58160956845677E-08
1	7	66.602825831844	-0.129547119140625	-0.12939453125	-5.73730468750006E-08	7.4237584968273E-09	2255319.25	-7.25467614870468E-08
1	8	66.7035338315898	-0.119476318359375	-0.119415283203125	-3.78417968750003E-08	4.51888881869422E-09	3155645.25	-7.73412125454342E-08
1	9	66.8042418313355	-0.109405517578125	-0.10931396484375	-1.61743164062506E-08	1.76807857243944E-09	6758491	-8.00611346107871E-08
1	10	66.9049498310812	-0.099334716796875	-0.09918212890625	8.23974609374945E-09	-8.17235501493485E-10	-12037038	-8.0460672791105E-08
1	11	67.005657830827	-0.089263916015625	-0.08917236328125	3.72314453124994E-08	-3.32001581782038E-09	-2395082	-7.81710198793917E-08
1	12	67.1063658305727	-0.079193115234375	-0.0792236328125	7.41577148437506E-08	-5.87504311866383E-09	-1068312.75	-7.25621305264212E-08
1	13	67.2070738303184	-0.069122314453125	-0.069061279296875	1.2237548828125E-07	-8.45140757377294E-09	-564339.1875	-6.26658973601479E-08
1	14	67.3077818300642	-0.059051513671875	-0.05902099609375	1.861572265625E-07	-1.09871844955478E-08	-317049.1875	-4.71300403148689E-08
1	15	67.4084898298099	-0.048980712890625	-0.0488311767578125	2.70690917968749E-07	-1.32181554590716E-08	-180394.578125	-2.41259083821888E-08
1	16	67.5091978295557	-0.038909912109375	-0.038763427734375	3.826904296875E-07	-1.48343914929683E-08	-101291.8671875	8.77445494040785E-09
1	17	67.6099058293014	-0.028839111328125	-0.0286895751953125	5.27343750000001E-07	-1.51292667283087E-08	-54403.9375	5.45983134259131E-08
1	18	67.7106138290471	-0.018768310546875	-0.0186248779296875	7.086181640625E-07	-1.31979263073845E-08	-26283.376953125	1.16833938079708E-07
1	19	67.8113218287929	-0.008697509765625	-0.00860595703125	9.22241210937499E-07	-7.93676857568926E-09	-9331.568359375	1.98954225538728E-07
1	20	67.9120298285386	0.001373291015625	0.0014495849609375	1.15875244140625E-06	1.67971003772749E-09	1250.98767089844	3.03740591789392E-07
1	21	68.0127378282843	0.011444091796875	0.0115325927734375	1.39923095703125E-06	1.61367594841977E-08	8242.09375	4.32545277817553E-07
1	22	68.1134458280301	0.021514892578125	0.0216156005859375	1.62017822265625E-06	3.50211237787335E-08	13341.49609375	5.84584597618232E-07
1	23	68.2141538277758	0.031585693359375	0.0316680908203125	1.79962158203125E-06	5.69905722613839E-08	17597.083984375	7.56785198063881E-07
1	24	68.3148618275216	0.041656494140625	0.041717529296875	1.92291259765625E-06	8.02191593152202E-08	21694.96875	9.44229668675689E-07
1	25	68.4155698272673	0.051727294921875	0.0517578125	1.9854736328125E-06	1.02763770826186E-07	26068.24609375	1.14103249870823E-06
1	26	68.516277827013	0.061798095703125	0.061859130859375	1.99554443359375E-06	1.23442646327021E-07	30998.625	1.34149274799711E-06
1	27	68.6169858267588	0.071868896484375	0.07183837890625	1.96563720703125E-06	1.41208190029829E-07	36547.12109375	1.54095403104293E-06
1	28	68.7176938265045	0.081939697265625	0.082000732421875	1.91253662109375E-06	1.56829401021241E-07	42875.37890625	1.73623561749991E-06
1	29	68.8184018262502	0.092010498046875	0.09210205078125	1.84600830078125E-06	1.70021138501397E-07	49892.546875	1.92549350686022E-06
1	30	68.919109825996	0.102081298828125	0.10211181640625	1.77520751953125E-06	1.81269655286087E-07	57521.0625	2.1078360532556E-06
1	31	69.0198178257417	0.112152099609375	0.11224365234375	1.705322265625E-06	1.91411601235814E-07	65819.6171875	2.28309477279254E-06
1	32	69.1205258254874	0.122222900390625	0.122222900390625	1.6400146484375E-06	2.00447345832799E-07	74525.4921875	2.45154569711303E-06
1	33	69.2212338252332	0.132293701171875	0.13238525390625	1.57989501953125E-06	2.09154791264154E-07	83793.703125	2.61368109022442E-06
1	34	69.3219418249789	0.142364501953125	0.142425537109375	1.5252685546875E-06	2.17237186461716E-07	93377.3515625	2.77003846349544E-06
1	35	69.4226498247247	0.152435302734375	0.152496337890625	1.47674560546875E-06	2.25198277803429E-07	103265.140625	2.92120193989831E-06
1	36	69.5233578244704	0.162506103515625	0.162506103515625	1.43341064453125E-06	2.32937978239534E-07	113370.2421875	3.06773995362164E-06
1	37	69.6240658242161	0.172576904296875	0.172576904296875	1.39434814453125E-06	2.40632289205678E-07	123768.875	3.21012885251548E-06
1	38	69.7247738239619	0.182647705078125	0.18267822265625	1.35986328125E-06	2.48417421744307E-07	134335.71875	3.34881451635738E-06
1	39	69.8254818237076	0.192718505859375	0.1927490234375	1.3287353515625E-06	2.56112429042332E-07	145062.015625	3.48419621332141E-06
1	40	69.9261898234533	0.202789306640625	0.202789306640625	1.30096435546875E-06	2.63821647195073E-07	155876.15625	3.61661204806296E-06
1	41	70.0268978231991	0.212860107421875	0.212921142578125	1.27593994140625E-06	2.71674593932403E-07	166873.953125	3.74636942979123E-06
1	42	70.1276058229448	0.222930908203125	0.222991943359375	1.2530517578125E-06	2.79420447668599E-07	177959.078125	3.87371437682305E-06
1	43	70.2283138226906	0.233001708984375	0.233001708984375	1.23260498046875E-06	2.87199071635769E-07	189031.9375	3.99887721869163E-06
1	44	70.3290218224363	0.243072509765625	0.24310302734375	1.214599609375E-06	2.95272826633663E-07	200150.75	4.12210374634014E-06
1	45	70.429729822182	0.253143310546875	0.253173828125	1.19720458984375E-06	3.03100875953533E-07	211470.8125	4.24354766437318E-06
1	46	70.5304378219278	0.263214111328125	0.263214111328125	1.18194580078125E-06	3.11104798811357E-07	222695.59375	4.36334721598541E-06
1	47	70.6311458216735	0.273284912109375	0.2733154296875	1.16790771484375E-06	3.19207202892358E-07	234021.421875	4.48167202193872E-06
1	48	70.7318538214192	0.283355712890625	0.2833251953125	1.1553955078125E-06	3.27352637441436E-07	245219.234375	4.59865941593307E-06
1	49	70.832561821165	0.293426513671875	0.293487548828125	1.143798828125E-06	3.35690714337034E-07	256590.171875	4.7144330892479E-06
1	50	70.9332698209107	0.303497314453125	0.303497314453125	1.1334228515625E-06	3.43990791407123E-07	267770.59375	4.82910036225803E-06
1	51	71.0339778206564	0.313568115234375	0.313629150390625	1.1236572265625E-06	3.52411632320582E-07	279114.625	4.94275354867568E-06
1	52	71.1346858204022	0.323638916015625	0.32366943359375	1.1151123046875E-06	3.60927742804051E-07	290257.28125	5.05548450746574E-06
1	53	71.2353938201479	0.333709716796875	0.333740234375	1.107177734375E-06	3.69509734809981E-07	301433.3125	5.16738555234042E-06
1	54	71.3361018198937	0.343780517578125	0.34375	1.1004638671875E-06	3.78284426005848E-07	312368.28125	5.27854899701197E-06
1	55	71.4368098196394	0.353851318359375	0.353912353515625	1.0943603515625E-06	3.87307636628975E-07	323396.5625	5.38906715519261E-06
1	56	71.5375178193851	0.363922119140625	0.363861083984375	1.08917236328125E-06	3.96307427763531E-07	334071.1875	5.49901687918464E-06
1	57	71.6382258191309	0.373992919921875	0.37396240234375	1.08489990234375E-06	4.05711745088411E-07	344697.625	5.60849002795294E-06
1	58	71.7389338188766	0.384063720703125	0.384002685546875	1.08184814453125E-06	4.15432594991216E-07	354950.625	5.71759437661967E-06
1	59	71.8396418186223	0.394134521484375	0.394195556640625	1.07879638671875E-06	4.25256729386092E-07	365403.125	5.82639177082456E-06
1	60	71.9403498183681	0.404205322265625	0.404266357421875	1.07666015625E-06	4.35257476283368E-07	375481.84375	5.93492768530268E-06
1	61	72.0410578181138	0.414276123046875	0.41424560546875	1.0748291015625E-06	4.45243244939775E-07	385406	6.04326351094642E-06
1	62	72.1417658178596	0.424346923828125	0.42437744140625	1.0736083984375E-06	4.55615179362212E-07	395281.4375	6.1514460867329E-06
1	63	72.2424738176053	0.434417724609375	0.43438720703125	1.072998046875E-06	4.66096594209375E-07	404835.0625	6.25953634880716E-06
1	64	72.343181817351	0.444488525390625	0.44451904296875	1.07208251953125E-06	4.76561069717718E-07	414631.40625	6.36754975857912E-06
1	65	72.4438898170968	0.454559326171875	0.454620361328125	1.0723876953125E-06	4.87529291604005E-07	423932.84375	6.47553224553121E-06
1	66	72.5445978168425	0.464630126953125	0.464630126953125	1.072998046875E-06	4.98547194638377E-07	433020.5	6.5835611167131E-06
1	67	72.6453058165882	0.474700927734375	0.4747314453125	1.07452392578125E-06	5.10110282903042E-07	441806.3125	6.6916973082698E-06
1	68	72.746013816334	0.484771728515625	0.484832763671875	1.07696533203125E-06	5.22148070558615E-07	450184.1875	6.80003358866088E-06
1	69	72.8467218160797	0.494842529296875	0.49481201171875	1.080322265625E-06	5.3455642046174E-07	458022.59375	6.90866136210389E-06
1	70	72.9474298158254	0.504913330078125	0.5048828125	1.085205078125E-06	5.47901379377436E-07	465241.84375	7.01770431987825E-06
1	71	73.0481378155712	0.514984130859375	0.51495361328125	1.09100341796875E-06	5.61816136723792E-07	472000.03125	7.12728524376871E-06
1	72	73.1488458153169	0.525054931640625	0.5250244140625	1.09893798828125E-06	5.76969284793449E-07	477756.15625	7.23755738363252E-06
1	73	73.2495538150627	0.535125732421875	0.53509521484375	1.1090087890625E-06	5.93425284023397E-07	482498.65625	7.348736289714E-06
1	74	73.3502618148084	0.545196533203125	0.545166015625	1.12274169921875E-06	6.12080611972488E-07	485566.75	7.46111390981241E-06
1	75	73.4509698145541	0.555267333984375	0.555206298828125	1.14227294921875E-06	6.34197135696013E-07	486053.96875	7.57516636440414E-06
1	76	73.5516778142999	0.565338134765625	0.5653076171875	1.168212890625E-06	6.60399621210672E-07	483908.0625	7.69150847190758E-06
1	77	73.6523858140456	0.575408935546875	0.575408935546875	1.20513916015625E-06	6.93447816502157E-07	477462.65625	7.81101698521525E-06
1	78	73.7530938137913	0.585479736328125	0.58544921875	1.25762939453125E-06	7.3627813890198E-07	465518.09375	7.93502658780199E-06
1	79	73.8538018135371	0.595550537109375	0.59552001953125	1.33392333984375E-06	7.94378024693287E-07	446442.5	8.06552179710707E-06
1	80	73.9545098132828	0.605621337890625	0.605621337890625	1.441650390625E-06	8.73094222697546E-07	420088.90625	8.20528293843381E-06
1	81	74.0552178130285	0.615692138671875	0.6156005859375	1.5899658203125E-06	9.78783873506472E-07	387178.5	8.35793707665289E-06
1	82	74.1559258127743	0.625762939453125	0.625701904296875	1.7877197265625E-06	1.11857968931872E-06	350000	8.52801713335793E-06
1	83	74.25663381252	0.635833740234375	0.635772705078125	2.0379638671875E-06	1.29568184092932E-06	311964.65625	8.72065538715106E-06
1	84	74.3573418122658	0.645904541015625	0.645843505859375	2.33978271484375E-06	1.51113340507436E-06	276027.125	8.94109234650386E-06
1	85	74.4580498120115	0.655975341796875	0.655914306640625	2.681884765625E-06	1.75908655819512E-06	244572.140625	9.19395370146958E-06
1	86	74.5587578117572	0.666046142578125	0.66595458984375	3.04595947265625E-06	2.02847058972111E-06	218635.421875	9.48237357079051E-06
1	87	74.659465811503	0.676116943359375	0.676055908203125	3.3990478515625E-06	2.29794636652514E-06	198895.6875	9.80690492724534E-06
1	88	74.7601738112487	0.686187744140625	0.6861572265625	3.7115478515625E-06	2.54670544563851E-06	184870.90625	1.01649520729552E-05
1	89	74.8608818109944	0.696258544921875	0.696136474609375	3.9556884765625E-06	2.75369893643074E-06	175983.640625	1.05510280263843E-05
1	90	74.9615898107402	0.706329345703125	0.706207275390625	4.11895751953125E-06	2.90883758680138E-06	171452.921875	1.09576194518013E-05
1	91	75.0622978104859	0.716400146484375	0.71636962890625	4.20257568359375E-06	3.01059731100395E-06	170459.671875	1.13766418508021E-05
1	92	75.1630058102317	0.726470947265625	0.72637939453125	4.22515869140625E-06	3.0690680432599E-06	171917.65625	1.18010111691547E-05
1	93	75.2637138099774	0.736541748046875	0.736419677734375	4.21295166015625E-06	3.10250038637605E-06	174799	1.22259043564554E-05
1	94	75.3644218097231	0.746612548828125	0.746551513671875	4.19677734375E-06	3.1331105674326E-06	177886.859375	1.2649367818085E-05
1	95	75.4651298094689	0.756683349609375	0.75714111328125	4.2010498046875E-06	3.18078741656791E-06	180226.65625	1.30722319227061E-05
1	96	75.5658378092146	0.766754150390625	0.76690673828125	4.25384521484375E-06	3.26230247083004E-06	180285.546875	1.34979700305848E-05
1	97	75.6665458089603	0.776824951171875	0.777587890625	4.37469482421875E-06	3.40170959134412E-06	177746.78125	1.39324511110317E-05
1	98	75.7672538087061	0.786895751953125	0.78704833984375	4.5849609375E-06	3.60858552994614E-06	171658.6875	1.43836059578462E-05
1	99	75.8679618084518	0.796966552734375	0.79742431640625	4.89532470703125E-06	3.90365084967925E-06	162895.078125	1.48609760799445E-05
1	100	75.9686698081975	0.807037353515625	0.80718994140625	5.3131103515625E-06	4.28868906965363E-06	151924.1875	1.53750115714502E-05
1	101	76.0693778079433	0.817108154296875	0.81695556640625	5.816650390625E-06	4.75194474347518E-06	140451.21875	1.59354385687038E-05
1	102	76.170085807689	0.827178955078125	0.8270263671875	6.3934326171875E-06	5.28753753314959E-06	129355.609375	1.65502660820493E-05
1	103	76.2707938074348	0.837249755859375	0.83770751953125	6.9976806640625E-06	5.86200940233539E-06	119712.171875	1.7224561815965E-05
1	104	76.3715018071805	0.847320556640625	0.8477783203125	7.5927734375E-06	6.43698876956478E-06	111655.953125	1.79592498170678E-05
1	105	76.4722098069262	0.857391357421875	0.85723876953125	8.123779296875E-06	6.964018666622E-06	105522.1640625	1.87506411748473E-05
1	106	76.572917806672	0.867462158203125	0.8673095703125	8.5540771484375E-06	7.41903295420343E-06	101391.3671875	1.95904376596445E-05
1	107	76.6736258064177	0.877532958984375	0.877685546875	8.8348388671875E-06	7.75420994614251E-06	99343.6953125	2.04660391318612E-05
1	108	76.7743338061634	0.887603759765625	0.8880615234375	8.9569091796875E-06	7.95428695710143E-06	99148.2109375	2.13619241549168E-05
1	109	76.8750418059092	0.897674560546875	0.897216796875	8.9263916015625E-06	8.00890848040581E-06	100512.8203125	2.22624203161104E-05
1	110	76.9757498056549	0.907745361328125	0.90789794921875	8.7860107421875E-06	7.97680149844382E-06	103334.4921875	2.31543108384358E-05
1	111	77.0764578054007	0.917816162109375	0.91766357421875	8.5784912109375E-06	7.87216868047835E-06	106972.609375	2.40286826738156E-05
1	112	77.1771658051464	0.927886962890625	0.92742919921875	8.3526611328125E-06	7.74650197854498E-06	111033.9765625	2.48812339123106E-05
1	113	77.2778738048921	0.937957763671875	0.9381103515625	8.1451416015625E-06	7.6410415204009E-06	115174.21875	2.57119645539206E-05
1	114	77.3785818046379	0.948028564453125	0.948486328125	7.9833984375E-06	7.57214411351015E-06	118807.34375	2.65241014858475E-05
1	115	77.4792898043836	0.958099365234375	0.958251953125	7.8857421875E-06	7.55652763473336E-06	121517.03125	2.73231762548676E-05
1	116	77.5799978041293	0.968170166015625	0.96832275390625	7.867431640625E-06	7.61821274863905E-06	123079.9140625	2.81164102489129E-05
1	117	77.6807058038751	0.978240966796875	0.9783935546875	7.9254150390625E-06	7.75417538534384E-06	123450.1328125	2.89116433123127E-05
1	118	77.7814138036208	0.988311767578125	0.9881591796875	8.050537109375E-06	7.95521191321313E-06	122744.5078125	2.9716096832999E-05
1	119	77.8821218033665	0.998382568359375	0.99822998046875	8.2244873046875E-06	8.20992954686517E-06	121372.921875	3.05356079479679E-05
1	120	77.9828298031123	1.00845336914063	1.00860595703125	8.4228515625E-06	8.49533807922853E-06	119746.3828125	3.1373871024698E-05
1	121	78.083537802858	1.01852416992188	1.01837158203125	8.6151123046875E-06	8.77338516147574E-06	118207.5859375	3.22318010148592E-05
1	122	78.1842458026038	1.02859497070313	1.029052734375	8.7677001953125E-06	9.02242572919931E-06	117368.609375	3.31070950778667E-05
1	123	78.2849538023495	1.03866577148438	1.03912353515625	8.8592529296875E-06	9.20585807762109E-06	117292.4609375	3.39946818712633E-05
1	124	78.3856618020952	1.04873657226563	1.04827880859375	8.8775634765625E-06	9.30616170080611E-06	118081.8203125	3.48878020304255E-05
1	125	78.486369801841	1.05880737304688	1.05865478515625	8.8287353515625E-06	9.34658237383701E-06	119910.1328125	3.57793833245523E-05
1	126	78.5870778015867	1.06887817382813	1.06903076171875	8.7310791015625E-06	9.33379214984598E-06	122439.703125	3.66635904356372E-05
1	127	78.6877858013324	1.07894897460938	1.0784912109375	8.5968017578125E-06	9.27157452679239E-06	125452.6171875	3.75361196347512E-05
1	128	78.7884938010782	1.08901977539063	1.0888671875	8.447265625E-06	9.19795093068387E-06	128901.734375	3.83943552151322E-05
1	129	78.8892018008239	1.09909057617188	1.09893798828125	8.2916259765625E-06	9.11198276298819E-06	132535.890625	3.92372239730321E-05
1	130	78.9899098005696	1.10916137695313	1.1090087890625	8.1390380859375E-06	9.0262647063355E-06	136257.96875	4.00645767513197E-05
1	131	79.0906178003154	1.11923217773438	1.11968994140625	7.9925537109375E-06	8.94918230187614E-06	140091.640625	4.08768646593671E-05
1	132	79.1913258000611	1.12930297851563	1.129150390625	7.855224609375E-06	8.86972975422395E-06	143745.140625	4.16748662246391E-05
1	133	79.2920337998069	1.13937377929688	1.13922119140625	7.72705078125E-06	8.80282004800392E-06	147432.859375	4.24594945798162E-05
1	134	79.3927417995526	1.14944458007813	1.14990234375	7.6080322265625E-06	8.74849411047762E-06	151143.203125	4.32316774094943E-05
1	135	79.4934497992983	1.15951538085938	1.15966796875	7.4981689453125E-06	8.695385986357E-06	154660.15625	4.39923351223115E-05
1	136	79.5941577990441	1.16958618164063	1.16943359375	7.3974609375E-06	8.65083893586416E-06	158085.8125	4.4742388126906E-05
1	137	79.6948657987898	1.17965698242188	1.17950439453125	7.3028564453125E-06	8.61375156091526E-06	161512.75	4.5482607674785E-05
1	138	79.7955737985355	1.18972778320313	1.18988037109375	7.2174072265625E-06	8.58785097079817E-06	164862.578125	4.62137613794766E-05
1	139	79.8962817982813	1.19979858398438	1.199951171875	7.135009765625E-06	8.56166298035532E-06	168177.9375	4.69364640593994E-05
1	140	79.996989798027	1.20986938476563	1.209716796875	7.061767578125E-06	8.54273912409553E-06	171305.09375	4.7651326894993E-05
1	141	80.0976977977728	1.21994018554688	1.2200927734375	6.9915771484375E-06	8.53037272463553E-06	174508.953125	4.83589719806332E-05
1	142	80.1984057975185	1.23001098632813	1.2298583984375	6.927490234375E-06	8.51983168104198E-06	177533.046875	4.90598504256923E-05
1	143	80.2991137972642	1.24008178710938	1.23992919921875	6.866455078125E-06	8.51391814649105E-06	180577.78125	4.97544315294363E-05
1	144	80.39982179701	1.25015258789063	1.25	6.8115234375E-06	8.5144038166618E-06	183512.546875	5.04431736771949E-05
1	145	80.5005297967557	1.26022338867188	1.259765625	6.756591796875E-06	8.51172171678627E-06	186449.875	5.11263824591879E-05
1	146	80.6012377965014	1.27029418945313	1.27044677734375	6.707763671875E-06	8.52185621624812E-06	189399.453125	5.18043671036139E-05
1	147	80.7019457962472	1.28036499023438	1.280517578125	6.6619873046875E-06	8.53079200169304E-06	192212.546875	5.24775859958027E-05
1	148	80.8026537959929	1.29043579101563	1.29058837890625	6.6162109375E-06	8.53880465001566E-06	195064.578125	5.31461955688428E-05
1	149	80.9033617957386	1.30050659179688	1.30126953125	6.5765380859375E-06	8.55784855957609E-06	197865.4375	5.3810505050933E-05
1	150	81.0040697954844	1.31057739257813	1.31072998046875	6.536865234375E-06	8.5680649135611E-06	200513.546875	5.44708163943142E-05
1	151	81.1047777952301	1.32064819335938	1.32080078125	6.500244140625E-06	8.58552721183514E-06	203192.484375	5.51272860320751E-05
1	152	81.2054857949759	1.33071899414063	1.33056640625	6.4666748046875E-06	8.60434010974132E-06	205757.4375	5.57802231924143E-05
1	153	81.3061937947216	1.34078979492188	1.3409423828125	6.43310546875E-06	8.62642355059506E-06	208444.03125	5.64297770324629E-05
1	154	81.4069017944673	1.35086059570313	1.351318359375	6.402587890625E-06	8.65193396748509E-06	211058.15625	5.70761076232884E-05
1	155	81.5076097942131	1.36093139648438	1.36138916015625	6.3751220703125E-06	8.679021448188E-06	213547.15625	5.77195169171318E-05
1	156	81.6083177939588	1.37100219726563	1.37115478515625	6.34765625E-06	8.70361873239744E-06	216009.625	5.83601577091031E-05
1	157	81.7090257937045	1.38107299804688	1.38092041015625	6.3201904296875E-06	8.72767941473285E-06	218493.5	5.89980336371809E-05
1	158	81.8097337934503	1.39114379882813	1.39068603515625	6.2957763671875E-06	8.75544810696738E-06	220891.921875	5.96333011344541E-05
1	159	81.910441793196	1.40121459960938	1.40106201171875	6.2744140625E-06	8.79084291227628E-06	223297.671875	6.02662585151847E-05
1	160	82.0111497929418	1.41128540039063	1.4117431640625	6.2530517578125E-06	8.82770291354973E-06	225768.671875	6.08970658504404E-05
1	161	82.1118577926875	1.42135620117188	1.42120361328125	6.2347412109375E-06	8.86083671503002E-06	227949.09375	6.1525875935331E-05
1	162	82.2125657924332	1.43142700195313	1.43157958984375	6.2164306640625E-06	8.89931470737793E-06	230289.65625	6.21528452029452E-05
1	163	82.313273792179	1.44149780273438	1.441650390625	6.2042236328125E-06	8.94432105269516E-06	232365.96875	6.27782719675452E-05
1	164	82.4139817919247	1.45156860351563	1.451416015625	6.1920166015625E-06	8.98719190445263E-06	234401.1875	6.34024763712659E-05
1	165	82.5146897916704	1.46163940429688	1.4617919921875	6.1859130859375E-06	9.04251737665618E-06	236309.828125	6.40257494524121E-05
1	166	82.6153977914162	1.47171020507813	1.47186279296875	6.182861328125E-06	9.10032395040616E-06	238055.28125	6.46485714241862E-05
1	167	82.7161057911619	1.48178100585938	1.48162841796875	6.1859130859375E-06	9.16522367333528E-06	239516.546875	6.52713861200027E-05
1	168	82.8168137909076	1.49185180664063	1.49200439453125	6.195068359375E-06	9.24306914384943E-06	240837.453125	6.58948192722164E-05
1	169	82.9175217906534	1.50192260742188	1.50177001953125	6.21337890625E-06	9.33106548473006E-06	241699.421875	6.65196348563768E-05
1	170	83.0182297903991	1.49185180664063	1.49169921875	5.9906005859375E-06	8.93617379915668E-06	249006.625	6.71341549605131E-05
1	171	83.1189377901449	1.48178100585938	1.48193359375	5.8197021484375E-06	8.62441174831474E-06	254640.796875	6.77288480801508E-05
1	172	83.2196457898906	1.47171020507813	1.4715576171875	5.67626953125E-06	8.35295759316068E-06	259247.328125	6.83077159919776E-05
1	173	83.3203537896363	1.46163940429688	1.461181640625	5.5511474609375E-06	8.11123481980758E-06	263221.5625	6.88730651745573E-05
1	174	83.4210617893821	1.45156860351563	1.451416015625	5.4443359375E-06	7.9019964687177E-06	266591.9375	6.94267291692086E-05
1	175	83.5217697891278	1.44149780273438	1.441650390625	5.3466796875E-06	7.70804308558581E-06	269634.6875	6.99700976838358E-05
1	176	83.6224777888735	1.43142700195313	1.43096923828125	5.255126953125E-06	7.51992456571315E-06	272299.65625	7.0503941969946E-05
1	177	83.7231857886193	1.42135620117188	1.4215087890625	5.17578125E-06	7.35741832613712E-06	274646.25	7.10291787981987E-05
1	178	83.823893788365	1.41128540039063	1.4111328125	5.0994873046875E-06	7.19605395715917E-06	276720.53125	7.15465794201009E-05
1	179	83.9246017881107	1.40121459960938	1.40167236328125	5.029296875E-06	7.04942658558139E-06	278701.4375	7.20566094969399E-05
1	180	84.0253097878565	1.39114379882813	1.3916015625	4.96337890625E-06	6.90704564476619E-06	280373.84375	7.25597783457488E-05
1	181	84.1260177876022	1.38107299804688	1.3812255859375	4.903564453125E-06	6.77292837281129E-06	281677.875	7.30566171114333E-05
1	182	84.226725787348	1.37100219726563	1.3714599609375	4.84649658203125E-06	6.64677554595983E-06	282979.6875	7.35475696274079E-05
1	183	84.3274337870937	1.36093139648438	1.36077880859375	4.7930908203125E-06	6.5223362071265E-06	283904.25	7.40329633117653E-05
1	184	84.4281417868394	1.35086059570313	1.3507080078125	4.74334716796875E-06	6.40687676423113E-06	284758.4375	7.45131619623862E-05
1	185	84.5288497865852	1.34078979492188	1.34063720703125	4.696044921875E-06	6.29569240118144E-06	285482.1875	7.49884711694904E-05
1	186	84.6295577863309	1.33071899414063	1.33056640625	4.65118408203125E-06	6.18870944890659E-06	286070.46875	7.54591455915943E-05
1	187	84.7302657860766	1.32064819335938	1.32080078125	4.60845947265625E-06	6.0868565014971E-06	286603.5625	7.59254035074264E-05
1	188	84.8309737858224	1.31057739257813	1.31103515625	4.56787109375E-06	5.98863971390529E-06	287012.28125	7.63874704716727E-05
1	189	84.9316817855681	1.30050659179688	1.30096435546875	4.5294189453125E-06	5.89261208006064E-06	287225.46875	7.68455502111465E-05
1	190	85.0323897853139	1.29043579101563	1.29058837890625	4.49371337890625E-06	5.79953393753385E-06	287198.65625	7.72999046603218E-05
1	191	85.1330977850596	1.28036499023438	1.280517578125	4.45892333984375E-06	5.70972952118609E-06	287180.90625	7.77507011662237E-05
1	192	85.2338057848053	1.27029418945313	1.2701416015625	4.4256591796875E-06	5.62121340408339E-06	286994.90625	7.8198077972047E-05
1	193	85.3345137845511	1.26022338867188	1.259765625	4.393310546875E-06	5.53454174223589E-06	286746.3125	7.86421514931135E-05
1	194	85.4352217842968	1.25015258789063	1.25	4.36279296875E-06	5.45349121239269E-06	286513.71875	7.90830526966602E-05
1	195	85.5359297840425	1.24008178710938	1.240234375	4.33349609375E-06	5.37455025551026E-06	286197.21875	7.95209489297122E-05
1	196	85.6366377837883	1.23001098632813	1.2298583984375	4.30511474609375E-06	5.29468115928466E-06	285673.78125	7.99559347797185E-05
1	197	85.737345783534	1.21994018554688	1.21978759765625	4.27764892578125E-06	5.21782294526929E-06	285153.75	8.03881121100858E-05
1	198	85.8380537832797	1.20986938476563	1.209716796875	4.25079345703125E-06	5.14225575898308E-06	284586.125	8.08175536803901E-05
1	199	85.9387617830255	1.19979858398438	1.19964599609375	4.22454833984375E-06	5.06796232002671E-06	283970.25	8.12443176982924E-05
1	200	86.0394697827712	1.18972778320313	1.18988037109375	4.1986083984375E-06	4.99584166391287E-06	283398.75	8.16684623714536E-05
1	201	86.140177782517	1.17965698242188	1.17950439453125	4.1717529296875E-06	4.92060053147725E-06	282735.9375	8.20899440441281E-05
1	202	86.2408857822627	1.16958618164063	1.16973876953125	4.1455078125E-06	4.84916108689504E-06	282170.1875	8.25087481644005E-05
1	203	86.3415937820084	1.15951538085938	1.15966796875	4.11895751953125E-06	4.77662297271308E-06	281544.0625	8.29248965601437E-05
1	204	86.4423017817542	1.14944458007813	1.14898681640625	4.0899658203125E-06	4.69931683255709E-06	280928.21875	8.33382509881631E-05
1	205	86.5430097814999	1.13937377929688	1.1395263671875	4.058837890625E-06	4.62515299659572E-06	280751.875	8.37485713418573E-05
1	206	86.6437177812456	1.12930297851563	1.1297607421875	4.0234375E-06	4.54552127848729E-06	280794.9375	8.41555520310067E-05
1	207	86.7444257809914	1.11923217773438	1.11907958984375	3.9825439453125E-06	4.4567836994247E-06	280996.15625	8.45586837385781E-05
1	208	86.8451337807371	1.10916137695313	1.10931396484375	3.93341064453125E-06	4.36338723375229E-06	282023.4375	8.49572825245559E-05
1	209	86.9458417804829	1.09909057617188	1.0986328125	3.87298583984375E-06	4.25498956246884E-06	283665.59375	8.53503661346622E-05
1	210	87.0465497802286	1.08901977539063	1.0888671875	3.79669189453125E-06	4.13409316024627E-06	286793.6875	8.57365666888654E-05
1	211	87.1472577799743	1.07894897460938	1.0791015625	3.6981201171875E-06	3.99064720113529E-06	291797.34375	8.61139560583979E-05
1	212	87.2479657797201	1.06887817382813	1.0687255859375	3.57177734375E-06	3.81724976250553E-06	299213.96875	8.64800240378827E-05
1	213	87.3486737794658	1.05880737304688	1.0595703125	3.409423828125E-06	3.61252409675217E-06	310776.96875	8.6831561930012E-05
1	214	87.4493817792115	1.04873657226563	1.048583984375	3.2061767578125E-06	3.3619455734879E-06	327051.21875	8.71646770974621E-05
1	215	87.5500897789573	1.03866577148438	1.03851318359375	2.96234130859375E-06	3.07643063024443E-06	350571.75	8.74752877280116E-05
1	216	87.650797778703	1.02859497070313	1.0284423828125	2.68310546875E-06	2.75941920335754E-06	383303.03125	8.77595593919978E-05
1	217	87.7515057784487	1.01852416992188	1.01898193359375	2.3828125E-06	2.42804276240349E-06	427638.3125	8.80146471899934E-05
1	218	87.8522137781945	1.00845336914063	1.00830078125	2.08221435546875E-06	2.09949826057709E-06	484244.5	8.82394815562293E-05
1	219	87.9529217779402	0.998382568359375	0.99822998046875	1.807861328125E-06	1.80466133770096E-06	552160.6875	8.84353648871183E-05
1	220	88.053629777686	0.988311767578125	0.98876953125	1.5802001953125E-06	1.56245380367181E-06	625724.1875	8.86059642652981E-05
1	221	88.1543377774317	0.978240966796875	0.9783935546875	1.41357421875E-06	1.38303187213751E-06	692141.625	8.87567148311064E-05
1	222	88.2550457771774	0.968170166015625	0.96832275390625	1.3067626953125E-06	1.26536804145871E-06	741008.875	8.8893692009151E-05
1	223	88.3557537769232	0.958099365234375	0.958251953125	1.25091552734375E-06	1.19869218906388E-06	766040.5	8.90224837348796E-05
1	224	88.4564617766689	0.948028564453125	0.9478759765625	1.22528076171875E-06	1.16141416128812E-06	773599.0625	8.91471718205139E-05
1	225	88.5571697764146	0.937957763671875	0.9381103515625	1.209716796875E-06	1.13484782104933E-06	775479.375	8.92697789822705E-05
1	226	88.6578777761604	0.927886962890625	0.927734375	1.18255615234375E-06	1.09709799289703E-06	784516.125	8.93902397365309E-05
1	227	88.7585857759061	0.917816162109375	0.91766357421875	1.1285400390625E-06	1.03562001640967E-06	813142.25	8.95066114026122E-05
1	228	88.8592937756518	0.907745361328125	0.908203125	1.02996826171875E-06	9.35420302994316E-07	881777.8125	8.96153069334105E-05
1	229	88.9600017753976	0.897674560546875	0.8978271484375	8.709716796875E-07	7.81981952968636E-07	1030834	8.9711022155825E-05
1	230	89.0607097751433	0.887603759765625	0.88775634765625	6.4422607421875E-07	5.71915791169886E-07	1378019.875	8.97873178473674E-05
1	231	89.1614177748891	0.877532958984375	0.877685546875	3.41796875E-07	2.99990176699794E-07	2567857.25	8.98369689821266E-05
1	232	89.2621257746348	0.867462158203125	0.8673095703125	-3.08227539062497E-08	-2.67328701397673E-08	-28138614	8.98526268429123E-05
1	233	89.3628337743805	0.857391357421875	0.8575439453125	-4.60205078125001E-07	-3.94646065160487E-07	-1863395.25	8.98279031389393E-05
1	234	89.4635417741263	0.847320556640625	0.8477783203125	-9.14916992187501E-07	-7.75646810780017E-07	-926617.75	8.97586578503251E-05
1	235	89.564249773872	0.837249755859375	0.83770751953125	-1.363525390625E-06	-1.14223541913816E-06	-614368.875	8.96439305506647E-05
1	236	89.6649577736177	0.827178955078125	0.82733154296875	-1.7669677734375E-06	-1.46186823712924E-06	-468221.0625	8.94862969289534E-05
1	237	89.7656657733635	0.817108154296875	0.8172607421875	-2.09442138671875E-06	-1.71168824181223E-06	-390208.40625	8.92918615136296E-05
1	238	89.8663737731092	0.807037353515625	0.80718994140625	-2.3199462890625E-06	-1.87263719908515E-06	-347934.78125	8.90695810085163E-05
1	239	89.967081772855	0.796966552734375	0.79681396484375	-2.440185546875E-06	-1.944373934748E-06	-326538.28125	8.88298891368322E-05
1	240	90.0677897726007	0.786895751953125	0.78704833984375	-2.467041015625E-06	-1.9416804661887E-06	-319025.25	8.85827903402969E-05
1	241	90.1684977723464	0.776824951171875	0.7769775390625	-2.42462158203125E-06	-1.88387639354914E-06	-320453.125	8.8336477347184E-05
1	242	90.2692057720922	0.766754150390625	0.7666015625	-2.34130859375E-06	-1.79485084572661E-06	-327424.40625	8.80964944371954E-05
1	243	90.3699137718379	0.756683349609375	0.75714111328125	-2.2467041015625E-06	-1.70107205121894E-06	-337000.8125	8.78654682310298E-05
1	244	90.4706217715836	0.746612548828125	0.746490478515625	-2.15972900390625E-06	-1.612217033653E-06	-345640.84375	8.76435879035853E-05
1	245	90.5713297713294	0.736541748046875	0.73651123046875	-2.1002197265625E-06	-1.54683539221878E-06	-350682.9375	8.74290853971615E-05
1	246	90.6720377710751	0.726470947265625	0.726409912109375	-2.07916259765625E-06	-1.5103242958503E-06	-349376.1875	8.72186355991289E-05
1	247	90.7727457708208	0.716400146484375	0.71636962890625	-2.1063232421875E-06	-1.50890593886288E-06	-340104.34375	8.70078802108765E-05
1	248	90.8734537705666	0.706329345703125	0.706268310546875	-2.18597412109375E-06	-1.5438843092852E-06	-323090.875	8.67917406139895E-05
1	249	90.9741617703123	0.696258544921875	0.696136474609375	-2.315673828125E-06	-1.61202501658408E-06	-300619.40625	8.65650654304773E-05
1	250	91.0748697700581	0.686187744140625	0.68609619140625	-2.48382568359375E-06	-1.70414341482683E-06	-276225.5625	8.63233944983222E-05
1	251	91.1755777698038	0.676116943359375	0.676025390625	-2.67333984375E-06	-1.80724566689605E-06	-252876.71875	8.60637082951143E-05
1	252	91.2762857695495	0.666046142578125	0.66595458984375	-2.8582763671875E-06	-1.90348225714843E-06	-232991.671875	8.57851700857282E-05
1	253	91.3769937692953	0.655975341796875	0.655914306640625	-3.01300048828125E-06	-1.97627014131285E-06	-217694.734375	8.54895260999911E-05
1	254	91.477701769041	0.645904541015625	0.645843505859375	-3.11614990234375E-06	-2.01254511011939E-06	-207256.890625	8.51809018058702E-05
1	255	91.5784097687867	0.635833740234375	0.635833740234375	-3.15826416015625E-06	-2.00813087758434E-06	-201323.8125	8.48649578983895E-05
1	256	91.6791177685325	0.625762939453125	0.625732421875	-3.14056396484375E-06	-1.96515270545206E-06	-199242.0625	8.45477843540721E-05
1	257	91.7798257682782	0.615692138671875	0.61566162109375	-3.076171875E-06	-1.89388094895548E-06	-200138.890625	8.42347508296371E-05
1	258	91.880533768024	0.605621337890625	0.605621337890625	-2.97821044921875E-06	-1.80366782842611E-06	-203350.75	8.39298882056028E-05
1	259	91.9812417677697	0.595550537109375	0.595489501953125	-2.86285400390625E-06	-1.70479950156732E-06	-208005.546875	8.3635764895007E-05
1	260	92.0819497675154	0.585479736328125	0.58544921875	-2.7398681640625E-06	-1.60405363658356E-06	-213677.890625	8.33536469144747E-05
1	261	92.1826577672612	0.575408935546875	0.575439453125	-2.6171875E-06	-1.50603284509998E-06	-219869.40625	8.30838980618864E-05
1	262	92.2833657670069	0.565338134765625	0.565338134765625	-2.49969482421875E-06	-1.41317275392794E-06	-226162.859375	8.2826241850853E-05
1	263	92.3840737667526	0.555267333984375	0.5552978515625	-2.3895263671875E-06	-1.32689888232562E-06	-232388.25	8.25800525490195E-05
1	264	92.4847817664984	0.545196533203125	0.545166015625	-2.28729248046875E-06	-1.24695407066611E-06	-238345.578125	8.23445516289212E-05
1	265	92.5854897662441	0.535125732421875	0.53515625	-2.19390869140625E-06	-1.17408387723117E-06	-243928.234375	8.21189096313901E-05
1	266	92.6861977659898	0.525054931640625	0.5250244140625	-2.1075439453125E-06	-1.10651194518141E-06	-249116.71875	8.19023116491735E-05
1	267	92.7869057657356	0.514984130859375	0.514923095703125	-2.02911376953125E-06	-1.0448376315253E-06	-253767.46875	8.16940155345947E-05
1	268	92.8876137654813	0.504913330078125	0.504852294921875	-1.95831298828125E-06	-9.88658712230972E-07	-257799.609375	8.14932354842313E-05
1	269	92.9883217652271	0.494842529296875	0.494873046875	-1.893310546875E-06	-9.36948310936714E-07	-261379.765625	8.12992875580676E-05
1	270	93.0890297649728	0.484771728515625	0.484771728515625	-1.83349609375E-06	-8.88827059952746E-07	-264397.46875	8.11116260592826E-05
1	271	93.1897377647185	0.474700927734375	0.474700927734375	-1.778564453125E-06	-8.44286148549145E-07	-266901.1875	8.09297489468008E-05
1	272	93.2904457644643	0.464630126953125	0.464691162109375	-1.72821044921875E-06	-8.03084049039171E-07	-268885.75	8.07531687314622E-05
1	273	93.39115376421	0.454559326171875	0.454620361328125	-1.680908203125E-06	-7.6417512673288E-07	-270461.15625	8.05815070634708E-05
1	274	93.4918617639557	0.444488525390625	0.44451904296875	-1.63787841796875E-06	-7.28068130229076E-07	-271399.28125	8.04143928689882E-05
1	275	93.5925697637015	0.434417724609375	0.4344482421875	-1.59759521484375E-06	-6.940724119886E-07	-271938.875	8.02514696260914E-05
1	276	93.6932777634472	0.424346923828125	0.42431640625	-1.5606689453125E-06	-6.62217416902422E-07	-271881.125	8.00924390205182E-05
1	277	93.7939857631929	0.414276123046875	0.4141845703125	-1.52618408203125E-06	-6.32121896160243E-07	-271385.71875	7.99370027380064E-05
1	278	93.8946937629387	0.404205322265625	0.4041748046875	-1.4947509765625E-06	-6.04140666382591E-07	-270396.09375	7.97848842921667E-05
1	279	93.9954017626844	0.394134521484375	0.394134521484375	-1.46514892578125E-06	-5.7746575521378E-07	-269006.46875	7.96358435763977E-05
1	280	94.0961097624302	0.384063720703125	0.38409423828125	-1.4373779296875E-06	-5.5208857929756E-07	-267218.6875	7.94896914158016E-05
1	281	94.1968177621759	0.373992919921875	0.374114990234375	-1.4111328125E-06	-5.27925919868721E-07	-265116.78125	7.93462604633532E-05
1	282	94.2975257619216	0.363922119140625	0.363922119140625	-1.38671875E-06	-5.04657634792238E-07	-262433.96875	7.92053760960698E-05
1	283	94.3982337616674	0.353851318359375	0.353851318359375	-1.36383056640625E-06	-4.82593236483808E-07	-259454.03125	7.90668709669262E-05
1	284	94.4989417614131	0.343780517578125	0.343780517578125	-1.34368896484375E-06	-4.61934092754746E-07	-255848.28125	7.89305413491093E-05
1	285	94.5996497611588	0.333709716796875	0.33380126953125	-1.32293701171875E-06	-4.41598047018488E-07	-252318.34375	7.87962635513395E-05
1	286	94.7003577609046	0.323638916015625	0.32366943359375	-1.304931640625E-06	-4.22366468910695E-07	-248035.546875	7.8663942986168E-05
1	287	94.8010657606503	0.313568115234375	0.3135986328125	-1.2872314453125E-06	-4.03673993787379E-07	-243622.578125	7.85334123065695E-05
1	288	94.9017737603961	0.303497314453125	0.303466796875	-1.27105712890625E-06	-3.8572360949729E-07	-238751.515625	7.84045914770104E-05
1	289	95.0024817601418	0.293426513671875	0.29339599609375	-1.25701904296875E-06	-3.68804336403628E-07	-233406.171875	7.82772913225926E-05
1	290	95.1031897598875	0.283355712890625	0.283355712890625	-1.2432861328125E-06	-3.52292204297555E-07	-227908.703125	7.81513954279944E-05
1	291	95.2038977596333	0.273284912109375	0.273284912109375	-1.2310791015625E-06	-3.36435334702401E-07	-221988.109375	7.80268019298092E-05
1	292	95.304605759379	0.263214111328125	0.263214111328125	-1.219482421875E-06	-3.20984980817229E-07	-215840.84375	7.79034016886726E-05
1	293	95.4053137591247	0.253143310546875	0.253204345703125	-1.209716796875E-06	-3.06305537378648E-07	-209308.78125	7.77810855652206E-05
1	294	95.5060217588705	0.243072509765625	0.2430419921875	-1.20086669921875E-06	-2.91861027790219E-07	-202388.828125	7.76597007643431E-05
1	295	95.6067297586162	0.233001708984375	0.2330322265625	-1.19293212890625E-06	-2.77991631492114E-07	-195344.078125	7.75391672505066E-05
1	296	95.7074377583619	0.222930908203125	0.22296142578125	-1.1865234375E-06	-2.64548930317687E-07	-187911.53125	7.74193467805162E-05
1	297	95.8081457581077	0.212860107421875	0.212890625	-1.1810302734375E-06	-2.51430265052477E-07	-180258.40625	7.73001374909654E-05
1	298	95.9088537578534	0.202789306640625	0.202880859375	-1.1773681640625E-06	-2.38865453638937E-07	-172317.265625	7.71813793107867E-05
1	299	96.0095617575992	0.192718505859375	0.192779541015625	-1.1749267578125E-06	-2.26501839506454E-07	-164077.921875	7.70629339967854E-05
1	300	96.1102697573449	0.182647705078125	0.18267822265625	-1.17401123046875E-06	-2.14466282955073E-07	-155601.765625	7.69446560298093E-05
1	301	96.2109777570906	0.172576904296875	0.172607421875	-1.17462158203125E-06	-2.02748395849994E-07	-146947.265625	7.68263926147483E-05
1	302	96.3116857568364	0.162506103515625	0.162567138671875	-1.17919921875E-06	-1.91699044194138E-07	-137862.3125	7.67078672652133E-05
1	303	96.4123937565821	0.152435302734375	0.152496337890625	-1.18682861328125E-06	-1.80987015596656E-07	-128490.609375	7.65887307352386E-05
1	304	96.5131017563278	0.142364501953125	0.1424560546875	-1.1981201171875E-06	-1.70679470556934E-07	-118899.640625	7.64686337788589E-05
1	305	96.6138097560736	0.132293701171875	0.13232421875	-1.2152099609375E-06	-1.60801704396363E-07	-108890	7.63471180107445E-05
1	306	96.7145177558193	0.122222900390625	0.12225341796875	-1.23931884765625E-06	-1.51510960222367E-07	-98645.65625	7.62235213187523E-05
1	307	96.8152257555651	0.112152099609375	0.1121826171875	-1.27349853515625E-06	-1.42864394092612E-07	-88090.109375	7.60969924158417E-05
1	308	96.9159337553108	0.102081298828125	0.102081298828125	-1.31927490234375E-06	-1.34673285856479E-07	-77376.828125	7.59664326324128E-05
1	309	97.0166417550565	0.092010498046875	0.092041015625	-1.38153076171875E-06	-1.27157491647267E-07	-66622.484375	7.58304377086461E-05
1	310	97.1173497548023	0.081939697265625	0.082000732421875	-1.4642333984375E-06	-1.20068207820623E-07	-56002.5	7.56871377234347E-05
1	311	97.218057754548	0.071868896484375	0.07196044921875	-1.572265625E-06	-1.13140934843159E-07	-45768.63671875	7.55342407501303E-05
1	312	97.3187657542937	0.061798095703125	0.0618896484375	-1.70806884765625E-06	-1.05711777109718E-07	-36233.69921875	7.53690619603731E-05
1	313	97.4194737540395	0.051727294921875	0.051788330078125	-1.8756103515625E-06	-9.71347304812298E-08	-27611.455078125	7.51886109355837E-05
1	314	97.5201817537852	0.041656494140625	0.041766357421875	-2.07550048828125E-06	-8.66860858650398E-08	-20123.51171875	7.49896571505815E-05
1	315	97.6208897535309	0.031585693359375	0.0316619873046875	-2.30072021484375E-06	-7.28453670717499E-08	-13761.7724609375	7.47692974982783E-05
1	316	97.7215977532767	0.021514892578125	0.0216522216796875	-2.53875732421875E-06	-5.49697389828907E-08	-8528.6689453125	7.45256111258641E-05
1	317	97.8223057530224	0.011444091796875	0.0115203857421875	-2.772216796875E-06	-3.19370059287394E-08	-4155.658203125	7.42581833037548E-05
1	318	97.9230137527682	0.001373291015625	0.0014495849609375	-2.977294921875E-06	-4.31584190607737E-09	-486.8798828125	7.39686656743288E-05
1	319	98.0237217525139	-0.008697509765625	-0.00859680175781249	-3.1353759765625E-06	2.69542059783134E-08	2741.87280273438	7.3660870839376E-05
1	320	98.1244297522596	-0.018768310546875	-0.0186248779296875	-3.23394775390625E-06	6.02318763753829E-08	5759.17724609375	7.33401539037004E-05
1	321	98.2251377520054	-0.028839111328125	-0.0286865234375	-3.2745361328125E-06	9.3935057066119E-08	8760.484375	7.30124229448847E-05
1	322	98.3258457517511	-0.038909912109375	-0.0387237548828125	-3.26446533203125E-06	1.2641235969113E-07	11862.205078125	7.26831567590125E-05
1	323	98.4265537514968	-0.048980712890625	-0.0488555908203125	-3.218994140625E-06	1.57265859002109E-07	15177.28515625	7.23566918168217E-05
1	324	98.5272617512426	-0.059051513671875	-0.05902099609375	-3.15216064453125E-06	1.86043664029967E-07	18723.98046875	7.20358730177395E-05
1	325	98.6279697509883	-0.069122314453125	-0.069091796875	-3.074951171875E-06	2.12453898029707E-07	22469.234375	7.17223156243563E-05
1	326	98.7286777507341	-0.079193115234375	-0.0791015625	-2.996826171875E-06	2.37053640717022E-07	26395.111328125	7.14165798854083E-05
1	327	98.8293857504798	-0.089263916015625	-0.089141845703125	-2.92083740234375E-06	2.6036883582492E-07	30519.279296875	7.1118600317277E-05
1	328	98.9300937502255	-0.099334716796875	-0.099212646484375	-2.8497314453125E-06	2.82729388345615E-07	34814.73828125	7.0828027673997E-05
1	329	99.0308017499713	-0.109405517578125	-0.10931396484375	-2.78594970703125E-06	3.04543192441997E-07	39237.59765625	7.05442507751286E-05
1	330	99.131509749717	-0.119476318359375	-0.119384765625	-2.72918701171875E-06	3.25823350522114E-07	43743.7109375	7.02665420249104E-05
1	331	99.2322177494627	-0.129547119140625	-0.12945556640625	-2.67791748046875E-06	3.46671299666923E-07	48341.8828125	6.99942684150301E-05
1	332	99.3329257492085	-0.139617919921875	-0.13958740234375	-2.63397216796875E-06	3.67669315437524E-07	52995.01953125	6.97267969371751E-05
1	333	99.4336337489542	-0.149688720703125	-0.14959716796875	-2.59521484375E-06	3.88236770731964E-07	57643.46484375	6.94634873070754E-05
1	334	99.5343417486999	-0.159759521484375	-0.15960693359375	-2.56195068359375E-06	4.08905094673173E-07	62298.98828125	6.92038011038676E-05
1	335	99.6350497484457	-0.169830322265625	-0.169708251953125	-2.53387451171875E-06	4.30019412078764E-07	66975.7890625	6.89472071826458E-05
1	336	99.7357577481914	-0.179901123046875	-0.179779052734375	-2.50885009765625E-06	4.51038687288019E-07	71657.953125	6.86932835378684E-05
1	337	99.8364657479372	-0.189971923828125	-0.1898193359375	-2.48870849609375E-06	4.7240496314771E-07	76272.234375	6.84416372678243E-05
1	338	99.9371737476829	-0.200042724609375	-0.199920654296875	-2.47222900390625E-06	4.94249661642243E-07	80866.5625	6.81918318150565E-05
1	339	100.037881747429	-0.189971923828125	-0.189849853515625	-2.24395751953125E-06	4.26014992171986E-07	84604.9296875	6.79543591104448E-05
2	340	100.138589747174	-0.179901123046875	-0.1798095703125	-2.07855224609375E-06	3.73743574755281E-07	86507.125	6.77366988384165E-05
2	341	100.23929774692	-0.169830322265625	-0.169647216796875	-1.94366455078125E-06	3.29737275706066E-07	87282.1484375	6.75341652822681E-05
2	342	100.340005746666	-0.159759521484375	-0.159637451171875	-1.82891845703125E-06	2.91963857534938E-07	87285.171875	6.7344204580877E-05
2	343	100.440713746412	-0.149688720703125	-0.1495361328125	-1.72821044921875E-06	2.58429878385869E-07	86526.578125	6.7165085056331E-05
2	344	100.541421746157	-0.139617919921875	-0.139495849609375	-1.63818359375E-06	2.28519809297723E-07	85152.7578125	6.69955770717934E-05
2	345	100.642129745903	-0.129547119140625	-0.1295166015625	-1.55517578125E-06	2.01421073597885E-07	83281.0078125	6.68347784085199E-05
2	346	100.742837745649	-0.119476318359375	-0.119384765625	-1.47857666015625E-06	1.76519534988984E-07	80743.03125	6.66820124024525E-05
2	347	100.843545745395	-0.109405517578125	-0.109283447265625	-1.40472412109375E-06	1.53513099121483E-07	77797.0859375	6.65368279442191E-05
2	348	100.94425374514	-0.099334716796875	-0.099212646484375	-1.33209228515625E-06	1.32160394628045E-07	74478.8125	6.63990213070065E-05
2	349	101.044961744886	-0.089263916015625	-0.08917236328125	-1.2579345703125E-06	1.12172990895942E-07	70887.921875	6.62685997667722E-05
2	350	101.145669744632	-0.079193115234375	-0.079132080078125	-1.17889404296875E-06	9.32883352788849E-08	67124	6.61458980175667E-05
2	351	101.246377744377	-0.069122314453125	-0.069061279296875	-1.09100341796875E-06	7.53460867031208E-08	63300.703125	6.60315999994054E-05
2	352	101.347085744123	-0.059051513671875	-0.05902099609375	-9.9090576171875E-07	5.84842432260757E-08	59562.67578125	6.59267680021003E-05
2	353	101.447793743869	-0.048980712890625	-0.0488433837890625	-8.7127685546875E-07	4.25561097472382E-08	56059.546875	6.58329954603687E-05
2	354	101.548501743615	-0.038909912109375	-0.03880615234375	-7.2479248046875E-07	2.81264060930653E-08	53541.05078125	6.575263250852E-05
2	355	101.64920974336	-0.028839111328125	-0.02874755859375	-5.4931640625E-07	1.5791504992535E-08	52333.3359375	6.56884731142782E-05
2	356	101.749917743106	-0.018768310546875	-0.0186737060546875	-3.4210205078125E-07	6.38831343380275E-09	54585.19140625	6.56435877317563E-05
2	357	101.850625742852	-0.008697509765625	-0.0086029052734375	-1.0711669921875E-07	9.21514808904789E-10	80313.390625	6.56209667795338E-05
2	358	101.951333742598	0.001373291015625	0.00147094726562499	1.45874023437501E-07	2.14572998258333E-10	10083.681640625	6.56229167361744E-05
2	359	102.052041742343	0.011444091796875	0.011541748046875	3.96728515625E-07	4.57894033800699E-09	29092.310546875	6.56502379570156E-05
2	360	102.152749742089	0.021514892578125	0.02158203125	6.25000000000001E-07	1.34887692126995E-08	34531.25	6.57016862533055E-05
2	361	102.253457741835	0.031585693359375	0.0316497802734375	8.09326171875E-07	2.5614994569878E-08	39106.3359375	6.57739146845415E-05
2	362	102.354165741581	0.041656494140625	0.0417510986328125	9.4024658203125E-07	3.92563244133726E-08	44404.4140625	6.58620119793341E-05
2	363	102.454873741326	0.051727294921875	0.0517578125	1.014404296875E-06	5.25033456710844E-08	51022.8671875	6.59604338579811E-05
2	364	102.555581741072	0.061798095703125	0.061859130859375	1.04156494140625E-06	6.44303028707327E-08	59390.56640625	6.60639634588733E-05
2	365	102.656289740818	0.071868896484375	0.07196044921875	1.0333251953125E-06	7.43585388818246E-08	69639.6953125	6.61684389342554E-05
2	366	102.756997740564	0.081939697265625	0.08197021484375	1.004638671875E-06	8.23504464619873E-08	81591.7421875	6.62710590404458E-05
2	367	102.857705740309	0.092010498046875	0.092041015625	9.65576171875E-07	8.88726106040849E-08	95322.375	6.63702667225152E-05
2	368	102.958413740055	0.102081298828125	0.102081298828125	9.2193603515625E-07	9.41124298492468E-08	110724.9296875	6.64653125568293E-05
2	369	103.059121739801	0.112152099609375	0.1121826171875	8.7890625E-07	9.85980008749721E-08	127638.890625	6.65559928165749E-05
2	370	103.159829739546	0.122222900390625	0.122283935546875	8.404541015625E-07	1.02774038168718E-07	145497.453125	6.6642569436226E-05
2	371	103.260537739292	0.132293701171875	0.13232421875	8.06274414062499E-07	1.06689626022671E-07	164118.09375	6.67254862491973E-05
2	372	103.361245739038	0.142364501953125	0.14239501953125	7.7667236328125E-07	1.10594271518494E-07	183339.890625	6.68051943648607E-05
2	373	103.461953738784	0.152435302734375	0.15252685546875	7.51342773437499E-07	1.14599949085914E-07	203005.6875	6.68821376166306E-05
2	374	103.562661738529	0.162506103515625	0.16259765625	7.29980468749999E-07	1.18693108674961E-07	222742.484375	6.69567234581336E-05
2	375	103.663369738275	0.172576904296875	0.17254638671875	7.11669921874999E-07	1.22796066648334E-07	242452.84375	6.7029322963208E-05
2	376	103.764077738021	0.182647705078125	0.182708740234375	6.97021484375E-07	1.27351910350626E-07	262127.859375	6.71002562739886E-05
2	377	103.864785737767	0.192718505859375	0.1927490234375	6.8389892578125E-07	1.31820854676334E-07	281838.46875	6.71697853249498E-05
2	378	103.965493737512	0.202789306640625	0.20281982421875	6.73828125000001E-07	1.36665690320115E-07	300996.40625	6.72381574986503E-05
2	379	104.066201737258	0.212860107421875	0.212921142578125	6.6497802734375E-07	1.4158787564611E-07	320192.75	6.73055692459457E-05
2	380	104.166909737004	0.222930908203125	0.22296142578125	6.573486328125E-07	1.46563380098996E-07	339182.9375	6.73721515340731E-05
2	381	104.26761773675	0.233001708984375	0.233001708984375	6.5155029296875E-07	1.51812329818313E-07	357611.25	6.74380644340999E-05
2	382	104.368325736495	0.243072509765625	0.2430419921875	6.4697265625E-07	1.57241515807982E-07	375660.375	6.7503446189221E-05
2	383	104.469033736241	0.253143310546875	0.253173828125	6.4208984375E-07	1.62560340299933E-07	394296.5625	6.75683550070971E-05
2	384	104.569741735987	0.263214111328125	0.26324462890625	6.3934326171875E-07	1.68303671443937E-07	411742.28125	6.76328854751773E-05
2	385	104.670449735733	0.273284912109375	0.27325439453125	6.3629150390625E-07	1.73869437958274E-07	429448.46875	6.76971176289953E-05
2	386	104.771157735478	0.283355712890625	0.28338623046875	6.33850097656249E-07	1.79624393581435E-07	447087.125	6.7761073296424E-05
2	387	104.871865735224	0.293426513671875	0.29345703125	6.329345703125E-07	1.85739082780856E-07	463645.15625	6.78248616168275E-05
2	388	104.97257373497	0.303497314453125	0.303466796875	6.3201904296875E-07	1.91796786452869E-07	480154.53125	6.78885553497821E-05
2	389	105.073281734715	0.313568115234375	0.3135986328125	6.317138671875E-07	1.9810460116787E-07	496425.125	6.79521908750758E-05
2	390	105.173989734461	0.323638916015625	0.32366943359375	6.3201904296875E-07	2.04565239414478E-07	512119.78125	6.80158264003694E-05
2	391	105.274697734207	0.333709716796875	0.333709716796875	6.32324218749999E-07	2.11012732620475E-07	527751	6.80794910294935E-05
2	392	105.375405733953	0.343780517578125	0.34375	6.33850097656249E-07	2.17885968822884E-07	542320.625	6.8143242970109E-05
2	393	105.476113733698	0.353851318359375	0.353851318359375	6.353759765625E-07	2.24828625050577E-07	556916.4375	6.8207154981792E-05
2	394	105.576821733444	0.363922119140625	0.3638916015625	6.378173828125E-07	2.3209638300159E-07	570526.3125	6.82712634443305E-05
2	395	105.67752973319	0.373992919921875	0.3740234375	6.4056396484375E-07	2.39585915551288E-07	583897.125	6.83356411173008E-05
2	396	105.778237732936	0.384063720703125	0.384033203125	6.4422607421875E-07	2.47404216224822E-07	596115.5625	6.84003316564485E-05
2	397	105.878945732681	0.394134521484375	0.394195556640625	6.47888183593751E-07	2.55394638770667E-07	608431.5	6.84653932694346E-05
2	398	105.979653732427	0.404205322265625	0.404266357421875	6.5155029296875E-07	2.63399869027126E-07	620468.375	6.85308259562589E-05
2	399	106.080361732173	0.414276123046875	0.414276123046875	6.5582275390625E-07	2.7169170380148E-07	631689.125	6.85966588207521E-05
2	400	106.181069731919	0.424346923828125	0.42437744140625	6.59790039062499E-07	2.79999994745594E-07	643200.75	6.86629064148292E-05
2	401	106.281777731664	0.434417724609375	0.4344482421875	6.64672851562501E-07	2.88765932054957E-07	653627.1875	6.87295978423208E-05
2	402	106.38248573141	0.444488525390625	0.4444580078125	6.68945312499999E-07	2.97318081265985E-07	664416.0625	6.87967476551421E-05
2	403	106.483193731156	0.454559326171875	0.454498291015625	6.7291259765625E-07	3.05837602354586E-07	675419.5625	6.8864319473505E-05
2	404	106.583901730902	0.464630126953125	0.464599609375	6.78405761718751E-07	3.15187037358555E-07	684840.3125	6.89323642291129E-05
2	405	106.684609730647	0.474700927734375	0.474609375	6.8359375E-07	3.24439980659008E-07	694285.75	6.90009474055842E-05
2	406	106.785317730393	0.484771728515625	0.484771728515625	6.9000244140625E-07	3.34493677200953E-07	702565.25	6.90701126586646E-05
2	407	106.886025730139	0.494842529296875	0.494781494140625	6.96411132812499E-07	3.44571333243948E-07	710473.3125	6.91399254719727E-05
2	408	106.986733729884	0.504913330078125	0.504913330078125	7.04345703125001E-07	3.55633517301612E-07	716854.4375	6.92104586050846E-05
2	409	107.08744172963	0.514984130859375	0.514984130859375	7.13500976562501E-07	3.67441685966696E-07	721770.75	6.92818503011949E-05
2	410	107.188149729376	0.525054931640625	0.525115966796875	7.24182128906251E-07	3.80279573164444E-07	725115.9375	6.93542460794561E-05
2	411	107.288857729122	0.535125732421875	0.535125732421875	7.373046875E-07	3.94550710325348E-07	725786.4375	6.94278351147659E-05
2	412	107.389565728867	0.545196533203125	0.545196533203125	7.537841796875E-07	4.10960495855761E-07	723279.375	6.95029157213867E-05
2	413	107.490273728613	0.555267333984375	0.555206298828125	7.76062011718751E-07	4.30874507628687E-07	715414.875	6.95799535606056E-05
2	414	107.590981728359	0.565338134765625	0.5653076171875	8.0535888671875E-07	4.55275511512809E-07	701932.5625	6.96595816407353E-05
2	415	107.691689728105	0.575408935546875	0.575408935546875	8.4503173828125E-07	4.86238775465608E-07	680931.75	6.97426876286045E-05
2	416	107.79239772785	0.585479736328125	0.58551025390625	8.9996337890625E-07	5.26937753875245E-07	650593.4375	6.98305520927534E-05
2	417	107.893105727596	0.595550537109375	0.5955810546875	9.771728515625E-07	5.81985602821078E-07	609494.0625	6.99250740581192E-05
2	418	107.993813727342	0.605621337890625	0.605560302734375	1.0821533203125E-06	6.55309065678011E-07	559588.3125	7.00287710060365E-05
2	419	108.094521727088	0.615692138671875	0.61566162109375	1.22283935546875E-06	7.52855214614101E-07	503468.96875	7.0144837081898E-05
2	420	108.195229726833	0.625762939453125	0.625762939453125	1.40777587890625E-06	8.80933953339991E-07	444504.6875	7.02772958902642E-05
2	421	108.295937726579	0.635833740234375	0.635833740234375	1.6400146484375E-06	1.04277660284424E-06	387700.0625	7.04307676642202E-05
2	422	108.396645726325	0.645904541015625	0.64581298828125	1.91802978515625E-06	1.23868846912956E-06	336706.4375	7.06099308445118E-05
2	423	108.497353726071	0.655975341796875	0.655914306640625	2.2314453125E-06	1.46363686326367E-06	293941.46875	7.08188672433607E-05
2	424	108.598061725816	0.666046142578125	0.666015625	2.56134033203125E-06	1.70589271419885E-06	260026.203125	7.10602034814656E-05
2	425	108.698769725562	0.676116943359375	0.676025390625	2.87994384765625E-06	1.94691506294475E-06	234735.609375	7.13341942173429E-05
2	426	108.799477725308	0.686187744140625	0.686126708984375	3.160400390625E-06	2.16843523048738E-06	217101.203125	7.16383510734886E-05
2	427	108.900185725053	0.696258544921875	0.696136474609375	3.37799072265625E-06	2.35154243455327E-06	206080.046875	7.19675881555304E-05
2	428	109.000893724799	0.706329345703125	0.706268310546875	3.52508544921875E-06	2.48965602622775E-06	200354.953125	7.23151824786328E-05
2	429	109.101601724545	0.716400146484375	0.716217041015625	3.60260009765625E-06	2.58024351751374E-06	198805.59375	7.26740909158252E-05
2	430	109.202309724291	0.726470947265625	0.726409912109375	3.62945556640625E-06	2.63647234532982E-06	200142.953125	7.30382525944151E-05
2	431	109.303017724036	0.736541748046875	0.73651123046875	3.62823486328125E-06	2.67223549599294E-06	202994.375	7.34037093934603E-05
2	432	109.403725723782	0.746612548828125	0.746551513671875	3.62640380859375E-06	2.70729719886731E-06	205865.53125	7.3769006121438E-05
2	433	109.504433723528	0.756683349609375	0.75653076171875	3.64471435546875E-06	2.75733850685356E-06	207569.296875	7.41351395845413E-05
2	434	109.605141723274	0.766754150390625	0.7672119140625	3.70758056640625E-06	2.84449993159797E-06	206930.625	7.45053548598662E-05
2	435	109.705849723019	0.776824951171875	0.7769775390625	3.83331298828125E-06	2.97839801532973E-06	202690.875	7.48850725358352E-05
2	436	109.806557722765	0.786895751953125	0.78704833984375	4.04083251953125E-06	3.18033039548027E-06	194773.828125	7.52815612941049E-05
2	437	109.907265722511	0.796966552734375	0.797119140625	4.34173583984375E-06	3.46088063452044E-06	183594.578125	7.57036614231765E-05
2	438	110.007973722257	0.807037353515625	0.80718994140625	4.73785400390625E-06	3.82434791390551E-06	170370.375	7.61608534958214E-05
2	439	110.108681722002	0.817108154296875	0.816650390625	5.218505859375E-06	4.26169435741031E-06	156491.234375	7.66621960792691E-05
2	440	110.209389721748	0.827178955078125	0.8270263671875	5.755615234375E-06	4.76004515803652E-06	143690.359375	7.72147832321934E-05
2	441	110.310097721494	0.837249755859375	0.83740234375	6.317138671875E-06	5.28998634763411E-06	132560.390625	7.78226967668161E-05
2	442	110.41080572124	0.847320556640625	0.84747314453125	6.8634033203125E-06	5.81654967390932E-06	123477.1015625	7.8486387792509E-05
2	443	110.511513720985	0.857391357421875	0.85784912109375	7.342529296875E-06	6.29878195468336E-06	116832.921875	7.92017162893899E-05
2	444	110.612221720731	0.867462158203125	0.8673095703125	7.7239990234375E-06	6.69909832140547E-06	112287.6328125	7.99603731138632E-05
2	445	110.712929720477	0.877532958984375	0.87799072265625	7.9620361328125E-06	6.99059364706045E-06	110272.140625	8.07502292445861E-05
2	446	110.813637720222	0.887603759765625	0.88714599609375	8.056640625E-06	7.1474164542451E-06	110113.640625	8.15568346297368E-05
2	447	110.914345719968	0.897674560546875	0.89752197265625	8.0230712890625E-06	7.20088246453088E-06	111867.6328125	8.23665104690008E-05
2	448	111.015053719714	0.907745361328125	0.90789794921875	7.8948974609375E-06	7.16776094122906E-06	114998.078125	8.31680445116945E-05
2	449	111.11576171946	0.917816162109375	0.91796875	7.71484375E-06	7.0819851316628E-06	118987.34375	8.39540589367971E-05
2	450	111.216469719205	0.927886962890625	0.927734375	7.525634765625E-06	6.98178973834729E-06	123276.5703125	8.47214760142379E-05
2	451	111.317177718951	0.937957763671875	0.93780517578125	7.3577880859375E-06	6.90017168381019E-06	127457.484375	8.54709214763716E-05
2	452	111.417885718697	0.948028564453125	0.94879150390625	7.2265625E-06	6.85650093146251E-06	131292.234375	8.62052984302863E-05
2	453	111.518593718443	0.958099365234375	0.958251953125	7.1533203125E-06	6.85468285155366E-06	133959.046875	8.69293871801347E-05
2	454	111.619301718188	0.968170166015625	0.96832275390625	7.147216796875E-06	6.92081266606692E-06	135482.5	8.76494741532952E-05
2	455	111.720009717934	0.978240966796875	0.9783935546875	7.208251953125E-06	7.05250704413629E-06	135732.4375	8.83723259903491E-05
2	456	111.82071771768	0.988311767578125	0.98785400390625	7.330322265625E-06	7.24128813089919E-06	134762.703125	8.91044037416577E-05
2	457	111.921425717426	0.998382568359375	0.99822998046875	7.501220703125E-06	7.48794309402001E-06	133075.671875	8.98512298590504E-05
2	458	112.022133717171	1.00845336914063	1.00860595703125	7.6873779296875E-06	7.75353510107379E-06	131202.859375	9.06160348677076E-05
2	459	112.122841716917	1.01852416992188	1.01837158203125	7.861328125E-06	8.00575253379066E-06	129541.9375	9.13989788386971E-05
2	460	112.223549716663	1.02859497070313	1.0284423828125	7.9925537109375E-06	8.21988123789197E-06	128675.0625	9.21972823562101E-05
2	461	112.324257716409	1.03866577148438	1.03851318359375	8.062744140625E-06	8.37326570035657E-06	128803.9375	9.30057285586372E-05
2	462	112.424965716154	1.04873657226563	1.04827880859375	8.06884765625E-06	8.45840258989483E-06	129916.7890625	9.38180237426423E-05
2	463	112.5256737159	1.05880737304688	1.05926513671875	8.0169677734375E-06	8.49209391162731E-06	132127.90625	9.4628005172126E-05
2	464	112.626381715646	1.06887817382813	1.06903076171875	7.9193115234375E-06	8.46598777570762E-06	134990.375	9.54304632614367E-05
2	465	112.727089715391	1.07894897460938	1.0791015625	7.794189453125E-06	8.41072233015439E-06	138449.484375	9.62217018241063E-05
2	466	112.827797715137	1.08901977539063	1.08856201171875	7.6568603515625E-06	8.33496687846491E-06	142168.1875	9.69997199717909E-05
2	467	112.928505714883	1.09909057617188	1.0992431640625	7.51953125E-06	8.26579343993217E-06	146185.0625	9.77639138000086E-05
2	468	113.029213714629	1.10916137695313	1.109619140625	7.3822021484375E-06	8.19143315311521E-06	150310.046875	9.85142760328017E-05
2	469	113.129921714374	1.11923217773438	1.119384765625	7.2540283203125E-06	8.12004873296246E-06	154312.15625	9.92512723314576E-05
2	470	113.23062971412	1.12930297851563	1.12945556640625	7.135009765625E-06	8.05867603048682E-06	158297.6875	9.9975812190678E-05
2	471	113.331337713866	1.13937377929688	1.1395263671875	7.0220947265625E-06	8.00186171545647E-06	162277.28125	0.000100688681413885
2	472	113.432045713612	1.14944458007813	1.14959716796875	6.92138671875E-06	7.95680625742534E-06	166093.484375	0.000101390789495781
2	473	113.532753713357	1.15951538085938	1.15997314453125	6.82373046875E-06	7.91534421296092E-06	169991.0625	0.00010208291496383
2	474	113.633461713103	1.16958618164063	1.16973876953125	6.7352294921875E-06	7.87845874583581E-06	173674.671875	0.000102765661722515
2	475	113.734169712849	1.17965698242188	1.17889404296875	6.6558837890625E-06	7.84658186603338E-06	177120.59375	0.000103439953818452
2	476	113.834877712595	1.18972778320313	1.18988037109375	6.57958984375E-06	7.82892493589316E-06	180844.15625	0.000104106416983996
2	477	113.93558571234	1.19979858398438	1.199951171875	6.5093994140625E-06	7.81096150603844E-06	184341.3125	0.000104765502328519
2	478	114.036293712086	1.20986938476563	1.21002197265625	6.4453125E-06	7.79896981839556E-06	187736.75	0.000105417821032461
2	479	114.137001711832	1.21994018554688	1.2200927734375	6.38427734375E-06	7.78941011958523E-06	191108.984375	0.000106063838757109
2	480	114.237709711578	1.23001098632813	1.23016357421875	6.329345703125E-06	7.78613048169063E-06	194358.734375	0.00010670402116375
2	481	114.338417711323	1.24008178710938	1.23992919921875	6.2774658203125E-06	7.78361300035613E-06	197520.671875	0.000107338826637715
2	482	114.439125711069	1.25015258789063	1.2506103515625	6.2255859375E-06	7.78578214521986E-06	200882.359375	0.000107968407974113
2	483	114.539833710815	1.26022338867188	1.2603759765625	6.1798095703125E-06	7.7888835221529E-06	203950.609375	0.000108593063487206
2	484	114.64054171056	1.27029418945313	1.27044677734375	6.1370849609375E-06	7.79683978180401E-06	207011.453125	0.000109213273390196
2	485	114.741249710306	1.28036499023438	1.280517578125	6.097412109375E-06	7.80784375820076E-06	210010.015625	0.000109829328721389
2	486	114.841957710052	1.29043579101563	1.28997802734375	6.060791015625E-06	7.81828657636652E-06	212839.890625	0.000110441542346962
2	487	114.942665709798	1.30050659179688	1.3006591796875	6.0272216796875E-06	7.8393604781013E-06	215797.484375	0.000111050219857134
2	488	115.043373709543	1.31057739257813	1.3104248046875	5.99365234375E-06	7.85423071647529E-06	218635.4375	0.000111655521322973
2	489	115.144081709289	1.32064819335938	1.32110595703125	5.9661865234375E-06	7.88196484791115E-06	221432.21875	0.000112257745058741
2	490	115.244789709035	1.33071899414063	1.33087158203125	5.938720703125E-06	7.90367448644247E-06	224100.71875	0.000112857203930616
2	491	115.345497708781	1.34078979492188	1.34002685546875	5.9112548828125E-06	7.92124046711251E-06	226690.765625	0.000113453897938598
2	492	115.446205708526	1.35086059570313	1.35101318359375	5.889892578125E-06	7.95732194092125E-06	229378.25	0.000114048132672906
2	493	115.546913708272	1.36093139648438	1.3604736328125	5.865478515625E-06	7.97982829681132E-06	231945.90625	0.000114640068204608
2	494	115.647621708018	1.37100219726563	1.370849609375	5.84716796875E-06	8.01558780949563E-06	234446.765625	0.000115229842776898
2	495	115.748329707764	1.38107299804688	1.3812255859375	5.828857421875E-06	8.05096715339459E-06	236963.34375	0.000115817776531912
2	496	115.849037707509	1.39114379882813	1.39068603515625	5.8135986328125E-06	8.08489039627602E-06	239212.609375	0.00011640402226476
2	497	115.949745707255	1.40121459960938	1.40106201171875	5.79833984375E-06	8.12383314041654E-06	241631.578125	0.000116988732770551
2	498	116.050453707001	1.41128540039063	1.41143798828125	5.7861328125E-06	8.16676765680313E-06	243934.609375	0.000117572053568438
2	499	116.151161706747	1.42135620117188	1.4215087890625	5.77392578125E-06	8.2076858234359E-06	246194.5	0.000118154152005445
2	500	116.251869706492	1.43142700195313	1.4312744140625	5.7647705078125E-06	8.25096867629327E-06	248279.515625	0.000118735166324768
2	501	116.352577706238	1.44149780273438	1.441650390625	5.755615234375E-06	8.29758482723264E-06	250477.21875	0.000119315263873432
2	502	116.453285705984	1.45156860351563	1.45172119140625	5.74951171875E-06	8.34668844618136E-06	252494.6875	0.000119894597446546
2	503	116.553993705729	1.46163940429688	1.461181640625	5.743408203125E-06	8.39216227177531E-06	254410.203125	0.000120473312563263
2	504	116.654701705475	1.47171020507813	1.47216796875	5.743408203125E-06	8.45526119519491E-06	256323.0625	0.000121051714813802
2	505	116.755409705221	1.48178100585938	1.48162841796875	5.743408203125E-06	8.50959622766823E-06	257970.25	0.0001216301243403
2	506	116.856117704967	1.49185180664063	1.49200439453125	5.74951171875E-06	8.57829672895605E-06	259501.0625	0.000122208832181059
2	507	116.956825704712	1.50192260742188	1.5020751953125	5.7586669921875E-06	8.64995035954053E-06	260837.328125	0.000122788318549283
2	508	117.057533704458	1.49185180664063	1.49200439453125	5.5908203125E-06	8.3415288827382E-06	266866.8125	0.000123359815916047
2	509	117.158241704204	1.48178100585938	1.48162841796875	5.4656982421875E-06	8.09813354862854E-06	271077.625	0.000123916557640769
2	510	117.25894970395	1.47171020507813	1.47186279296875	5.35888671875E-06	7.88754550740123E-06	274658.3125	0.000124461614177562
2	511	117.359657703695	1.46163940429688	1.4617919921875	5.2642822265625E-06	7.69528560340405E-06	277681.15625	0.000124996528029442
2	512	117.460365703441	1.45156860351563	1.451416015625	5.181884765625E-06	7.52107052903739E-06	280094.21875	0.000125522536109202
2	513	117.561073703187	1.44149780273438	1.441650390625	5.1055908203125E-06	7.36047695681918E-06	282367	0.000126040555187501
2	514	117.661781702933	1.43142700195313	1.43157958984375	5.035400390625E-06	7.20857588021317E-06	284303.03125	0.00012655119644478
2	515	117.762489702678	1.42135620117188	1.42120361328125	4.96734619140625E-06	7.05961065250449E-06	286109.21875	0.000127054867334664
2	516	117.863197702424	1.41128540039063	1.41143798828125	4.9066162109375E-06	6.92538424118538E-06	287660.15625	0.000127552062622271
2	517	117.96390570217	1.40121459960938	1.40106201171875	4.84954833984375E-06	6.79451750329463E-06	288905.6875	0.000128043335280381
2	518	118.064613701916	1.39114379882813	1.39129638671875	4.79583740234375E-06	6.67243148200214E-06	290105	0.000128529005451128
2	519	118.165321701661	1.38107299804688	1.380615234375	4.74517822265625E-06	6.55126495985314E-06	290951.1875	0.000129009436932392
2	520	118.266029701407	1.37100219726563	1.370849609375	4.697265625E-06	6.43924431642517E-06	291839.9375	0.000129484906210564
2	521	118.366737701153	1.36093139648438	1.361083984375	4.65179443359375E-06	6.33148283668561E-06	292593.3125	0.000129955660668202
2	522	118.467445700898	1.35086059570313	1.35009765625	4.608154296875E-06	6.22145807938068E-06	292980.15625	0.000130421947687864
2	523	118.568153700644	1.34078979492188	1.34063720703125	4.56634521484375E-06	6.12181202086504E-06	293590.875	0.000130883912788704
2	524	118.66886170039	1.33071899414063	1.33056640625	4.5263671875E-06	6.0226316236367E-06	293959.03125	0.000131341774249449
2	525	118.769569700136	1.32064819335938	1.32049560546875	4.488525390625E-06	5.92707783653168E-06	294193.65625	0.000131795706693083
2	526	118.870277699881	1.31057739257813	1.31011962890625	4.451904296875E-06	5.83252722208272E-06	294282.96875	0.000132245899294503
2	527	118.970985699627	1.30050659179688	1.300048828125	4.41680908203125E-06	5.74206751480233E-06	294341.1875	0.000132692468469031
2	528	119.071693699373	1.29043579101563	1.290283203125	4.38262939453125E-06	5.65483333048178E-06	294408.46875	0.00013313555973582
2	529	119.172401699119	1.28036499023438	1.28021240234375	4.34967041015625E-06	5.56850181965274E-06	294324	0.00013357526040636
2	530	119.273109698864	1.27029418945313	1.27044677734375	4.31854248046875E-06	5.48647813047864E-06	294184.15625	0.000134011745103635
2	531	119.37381769861	1.26022338867188	1.26007080078125	4.288330078125E-06	5.40359906153753E-06	293837.1875	0.000134445130242966
2	532	119.474525698356	1.25015258789063	1.25030517578125	4.25872802734375E-06	5.32470949110575E-06	293586.53125	0.000134875503135845
2	533	119.575233698102	1.24008178710938	1.240234375	4.22943115234375E-06	5.24548568137106E-06	293239.0625	0.000135302921989933
2	534	119.675941697847	1.23001098632813	1.2298583984375	4.20166015625E-06	5.16744694323279E-06	292707.75	0.000135727459564805
2	535	119.776649697593	1.21994018554688	1.21978759765625	4.17510986328125E-06	5.09274696014472E-06	292157.03125	0.000136149261379614
2	536	119.877357697339	1.20986938476563	1.21002197265625	4.14794921875E-06	5.01910972161568E-06	291715.71875	0.000136568371090107
2	537	119.978065697085	1.19979858398438	1.20025634765625	4.12139892578125E-06	4.94673531648004E-06	291225.46875	0.000136984759592451
2	538	120.07877369683	1.18972778320313	1.18927001953125	4.0948486328125E-06	4.86988028569613E-06	290430.78125	0.000137398485094309
2	539	120.179481696576	1.17965698242188	1.18011474609375	4.0679931640625E-06	4.80069820696372E-06	290097.53125	0.000137809518491849
2	540	120.280189696322	1.16958618164063	1.16943359375	4.04083251953125E-06	4.7254848141165E-06	289404.15625	0.000138217830681242
2	541	120.380897696067	1.15951538085938	1.15936279296875	4.013671875E-06	4.65330185761559E-06	288853.40625	0.000138623407110572
2	542	120.481605695813	1.14944458007813	1.1492919921875	3.9837646484375E-06	4.57850865132059E-06	288493.9375	0.000139026102260686
2	543	120.582313695559	1.13937377929688	1.13922119140625	3.951416015625E-06	4.50153629572014E-06	288307.09375	0.000139425668749027
2	544	120.683021695305	1.12930297851563	1.129150390625	3.91571044921875E-06	4.42142572865123E-06	288364.125	0.000139821815537289
2	545	120.78372969505	1.11923217773438	1.119384765625	3.87451171875E-06	4.33706918556709E-06	288909.90625	0.000140214076964185
2	546	120.884437694796	1.10916137695313	1.1090087890625	3.82598876953125E-06	4.24305517299217E-06	289862.03125	0.00014060182729736
2	547	120.985145694542	1.09909057617188	1.09893798828125	3.76556396484375E-06	4.13812131228042E-06	291838.90625	0.000140984091558494
2	548	121.085853694288	1.08901977539063	1.0888671875	3.69049072265625E-06	4.01845409214729E-06	295046.75	0.000141359545523301
2	549	121.186561694033	1.07894897460938	1.07940673828125	3.59344482421875E-06	3.87878844776424E-06	300382.1875	0.000141726311994717
2	550	121.287269693779	1.06887817382813	1.0687255859375	3.46923828125E-06	3.70766360902053E-06	308057.71875	0.000142081946250983
2	551	121.387977693525	1.05880737304688	1.0589599609375	3.3099365234375E-06	3.50509003510524E-06	319933.625	0.00014242330507841
2	552	121.488685693271	1.04873657226563	1.04888916015625	3.1103515625E-06	3.262413883931E-06	337225.28125	0.000142746590427123
2	553	121.589393693016	1.03866577148438	1.0382080078125	2.8692626953125E-06	2.97889141620544E-06	361837.9375	0.000143047698657028
2	554	121.690101692762	1.02859497070313	1.02874755859375	2.59124755859375E-06	2.66573943008552E-06	397008.59375	0.000143322657095268
2	555	121.790809692508	1.01852416992188	1.01837158203125	2.28973388671875E-06	2.33179980568821E-06	444755.4375	0.00014356842439156
2	556	121.891517692254	1.00845336914063	1.00860595703125	1.98516845703125E-06	2.0022525859531E-06	508070.71875	0.000143783690873533
2	557	121.992225691999	0.998382568359375	0.99884033203125	1.7041015625E-06	1.7021252460836E-06	586139	0.000143969460623339
2	558	122.092933691745	0.988311767578125	0.98876953125	1.46728515625E-06	1.4508067351926E-06	673876.9375	0.000144129153341055
2	559	122.193641691491	0.978240966796875	0.97808837890625	1.28997802734375E-06	1.26171244119178E-06	758221	0.000144267993164249
2	560	122.294349691236	0.968170166015625	0.9686279296875	1.17523193359375E-06	1.1383624496375E-06	824201.5625	0.000144392121001147
2	561	122.395057690982	0.958099365234375	0.95794677734375	1.11541748046875E-06	1.06851064174407E-06	858823.5	0.000144507459481247
2	562	122.495765690728	0.948028564453125	0.9478759765625	1.0888671875E-06	1.03211107216339E-06	870515.6875	0.000144618461490609
2	563	122.596473690474	0.937957763671875	0.93841552734375	1.0748291015625E-06	1.0086363317896E-06	873083.4375	0.000144727411679924
2	564	122.697181690219	0.927886962890625	0.927734375	1.05133056640625E-06	9.75355419541302E-07	882438.375	0.000144834470120259
2	565	122.797889689965	0.917816162109375	0.91796875	1.002197265625E-06	9.19985723157879E-07	915956.1875	0.000144937876029871
2	566	122.898597689711	0.907745361328125	0.90789794921875	9.09423828125E-07	8.25664017156669E-07	998322.1875	0.000145034136949107
2	567	122.999305689457	0.897674560546875	0.8978271484375	7.5836181640625E-07	6.80877803915791E-07	1183903.375	0.00014511811605189
2	568	123.100013689202	0.887603759765625	0.8868408203125	5.39550781250001E-07	4.78495621791808E-07	1643665.25	0.000145183468703181
2	569	123.200721688948	0.877532958984375	0.877685546875	2.46276855468749E-07	2.16153623000537E-07	3563816.75	0.000145223035360686
2	570	123.301429688694	0.867462158203125	0.8673095703125	-1.18103027343749E-07	-1.0243188341974E-07	-7343669.5	0.000145229481859133
2	571	123.40213768844	0.857391357421875	0.85693359375	-5.3985595703125E-07	-4.62620675989456E-07	-1587337.5	0.000145196361700073
2	572	123.502845688185	0.847320556640625	0.8477783203125	-9.9090576171875E-07	-8.40068423713092E-07	-855559	0.000145119280205108
2	573	123.603553687931	0.837249755859375	0.83770751953125	-1.43951416015625E-06	-1.20589174912311E-06	-581937.6875	0.000144996898598038
2	574	123.704261687677	0.827178955078125	0.8270263671875	-1.8475341796875E-06	-1.52795939811767E-06	-447637.9375	0.00014483138511423
2	575	123.804969687422	0.817108154296875	0.8172607421875	-2.1826171875E-06	-1.7837674022303E-06	-374440.71875	0.000144628444104455
2	576	123.905677687168	0.807037353515625	0.80718994140625	-2.41729736328125E-06	-1.95121810975252E-06	-333922.5	0.000144396821269765
2	577	124.006385686914	0.796966552734375	0.79742431640625	-2.54791259765625E-06	-2.03176750801504E-06	-312971.625	0.000144146804814227
2	578	124.10709368666	0.786895751953125	0.787353515625	-2.5836181640625E-06	-2.03422086997307E-06	-304748.40625	0.000143888406455517
2	579	124.207801686405	0.776824951171875	0.7769775390625	-2.5482177734375E-06	-1.97990789274627E-06	-304910.1875	0.000143630008096807
2	580	124.308509686151	0.766754150390625	0.76690673828125	-2.47039794921875E-06	-1.89456477528438E-06	-310438.53125	0.000143377299536951
2	581	124.409217685897	0.756683349609375	0.75714111328125	-2.37701416015625E-06	-1.79973517333565E-06	-318526.125	0.00014313320571091
2	582	124.509925685643	0.746612548828125	0.746551513671875	-2.29095458984375E-06	-1.71031570062041E-06	-325869.1875	0.000142898163176142
2	583	124.610633685388	0.736541748046875	0.73651123046875	-2.22869873046875E-06	-1.64146149472799E-06	-330466.96875	0.00014267057122197
2	584	124.711341685134	0.726470947265625	0.726409912109375	-2.20367431640625E-06	-1.60077081545751E-06	-329635.78125	0.000142447388498113
2	585	124.81204968488	0.716400146484375	0.71624755859375	-2.22503662109375E-06	-1.59367698415736E-06	-321903.75	0.000142224380397238
2	586	124.912757684626	0.706329345703125	0.70623779296875	-2.29766845703125E-06	-1.62270021064614E-06	-307371.53125	0.000141996642923914
2	587	125.013465684371	0.696258544921875	0.696197509765625	-2.41943359375E-06	-1.68440351444588E-06	-287752.28125	0.000141759126563556
2	588	125.114173684117	0.686187744140625	0.6861572265625	-2.5799560546875E-06	-1.77025538050657E-06	-265956.96875	0.000141507378430106
2	589	125.214881683863	0.676116943359375	0.676055908203125	-2.762451171875E-06	-1.86757131359627E-06	-244730.46875	0.000141238371725194
2	590	125.315589683609	0.666046142578125	0.666015625	-2.94097900390625E-06	-1.95873781194678E-06	-226460.53125	0.000140951175126247
2	591	125.416297683354	0.655975341796875	0.655975341796875	-3.09356689453125E-06	-2.02930368686793E-06	-212044.984375	0.000140647316584364
2	592	125.5170056831	0.645904541015625	0.6458740234375	-3.19580078125E-06	-2.06408458325313E-06	-202100.84375	0.000140330623253249
2	593	125.617713682846	0.635833740234375	0.635772705078125	-3.23883056640625E-06	-2.05915989681671E-06	-196297	0.000140006610308774
2	594	125.718421682591	0.625762939453125	0.625732421875	-3.22479248046875E-06	-2.01785724129877E-06	-194038.046875	0.000139681142172776
2	595	125.819129682337	0.615692138671875	0.61566162109375	-3.1634521484375E-06	-1.94761605598615E-06	-194617.03125	0.000139359472086653
2	596	125.919837682083	0.605621337890625	0.60552978515625	-3.06915283203125E-06	-1.85846351996588E-06	-197295.421875	0.000139045630930923
2	597	126.020545681829	0.595550537109375	0.595550537109375	-2.95684814453125E-06	-1.76095238657581E-06	-201413.984375	0.000138742194394581
2	598	126.121253681574	0.585479736328125	0.585479736328125	-2.8369140625E-06	-1.66095571785263E-06	-206379.09375	0.000138450457598083
2	599	126.22196168132	0.575408935546875	0.57550048828125	-2.7166748046875E-06	-1.56344765400718E-06	-211840.03125	0.000138170813443139
2	600	126.322669681066	0.565338134765625	0.565277099609375	-2.6007080078125E-06	-1.47012053730577E-06	-217355.09375	0.000137903058202937
2	601	126.423377680812	0.555267333984375	0.555206298828125	-2.49114990234375E-06	-1.38310213060322E-06	-222871.5	0.000137646668008529
2	602	126.524085680557	0.545196533203125	0.54510498046875	-2.39013671875E-06	-1.30287537558615E-06	-228064.359375	0.000137400871608406
2	603	126.624793680303	0.535125732421875	0.53509521484375	-2.29583740234375E-06	-1.22849155559379E-06	-233071.921875	0.000137164926854894
2	604	126.725501680049	0.525054931640625	0.524993896484375	-2.20977783203125E-06	-1.16011983664066E-06	-237577.703125	0.000136938047944568
2	605	126.826209679795	0.514984130859375	0.514984130859375	-2.13134765625E-06	-1.09761015210097E-06	-241623.71875	0.000136719449074008
2	606	126.92691767954	0.504913330078125	0.504974365234375	-2.05963134765625E-06	-1.04006096535159E-06	-245177.078125	0.000136508417199366
2	607	127.027625679286	0.494842529296875	0.494873046875	-1.99371337890625E-06	-9.8663497283269E-07	-248216.75	0.000136304312036373
2	608	127.128333679032	0.484771728515625	0.48480224609375	-1.93328857421875E-06	-9.37262655043014E-07	-250765.59375	0.00013610658061225
2	609	127.229041678778	0.474700927734375	0.4747314453125	-1.87744140625E-06	-8.91280478754197E-07	-252860.859375	0.000135914684506133
2	610	127.329749678523	0.464630126953125	0.46466064453125	-1.82586669921875E-06	-8.48408376441512E-07	-254487.71875	0.000135728216264397
2	611	127.430457678269	0.454559326171875	0.45458984375	-1.77825927734375E-06	-8.08378615602123E-07	-255637.546875	0.000135546724777669
2	612	127.531165678015	0.444488525390625	0.44451904296875	-1.7340087890625E-06	-7.70799886140594E-07	-256353.40625	0.000135369875351898
2	613	127.63187367776	0.434417724609375	0.4344482421875	-1.693115234375E-06	-7.35570949927933E-07	-256596.96875	0.000135197304189205
2	614	127.732581677506	0.424346923828125	0.42437744140625	-1.65557861328125E-06	-7.02590170931217E-07	-256331.8125	0.000135028691147454
2	615	127.833289677252	0.414276123046875	0.414276123046875	-1.6204833984375E-06	-6.71327541112987E-07	-255649.734375	0.00013486371608451
2	616	127.933997676998	0.404205322265625	0.404266357421875	-1.588134765625E-06	-6.42029476694006E-07	-254554.1875	0.000134702160721645
2	617	128.034705676743	0.394134521484375	0.394134521484375	-1.5582275390625E-06	-6.1415124719133E-07	-252937.734375	0.000134543719468638
2	618	128.135413676489	0.384063720703125	0.384002685546875	-1.5301513671875E-06	-5.87582178468438E-07	-250957.328125	0.000134388217702508
2	619	128.236121676235	0.373992919921875	0.373992919921875	-1.5032958984375E-06	-5.62221998734458E-07	-248781.984375	0.000134235466248356
2	620	128.336829675981	0.363922119140625	0.363861083984375	-1.4794921875E-06	-5.38329629762302E-07	-245936.46875	0.000134085275931284
2	621	128.437537675726	0.353851318359375	0.353851318359375	-1.456298828125E-06	-5.1531327471821E-07	-242979.875	0.000133937443024479
2	622	128.538245675472	0.343780517578125	0.34381103515625	-1.4349365234375E-06	-4.93346988150734E-07	-239600.171875	0.000133791851112619
2	623	128.638953675218	0.333709716796875	0.33380126953125	-1.4154052734375E-06	-4.72464051881616E-07	-235834.421875	0.000133648325572722
2	624	128.739661674964	0.323638916015625	0.32366943359375	-1.39678955078125E-06	-4.52098078085328E-07	-231723.828125	0.000133506720885634
2	625	128.840369674709	0.313568115234375	0.3135986328125	-1.37939453125E-06	-4.32576229059123E-07	-227345.140625	0.000133366935187951
2	626	128.941077674455	0.303497314453125	0.303466796875	-1.363525390625E-06	-4.13784675856732E-07	-222560.4375	0.000133228822960518
2	627	129.041785674201	0.293426513671875	0.293426513671875	-1.34918212890625E-06	-3.95885791704131E-07	-217484.734375	0.00013309222413227
2	628	129.142493673947	0.283355712890625	0.28338623046875	-1.33544921875E-06	-3.78447907678492E-07	-212202.9375	0.000132957036839798
2	629	129.243201673692	0.273284912109375	0.273345947265625	-1.3232421875E-06	-3.61702888085347E-07	-206572.890625	0.000132823159219697
2	630	129.343909673438	0.263214111328125	0.2633056640625	-1.3128662109375E-06	-3.45685094771397E-07	-200557.890625	0.000132690431200899
2	631	129.444617673184	0.253143310546875	0.253173828125	-1.30340576171875E-06	-3.29988210978627E-07	-194240.234375	0.000132558678160422
2	632	129.545325672929	0.243072509765625	0.243072509765625	-1.29486083984375E-06	-3.14745051355203E-07	-187720.953125	0.000132427856442519
2	633	129.646033672675	0.233001708984375	0.233062744140625	-1.287841796875E-06	-3.00147945608842E-07	-180971.5625	0.000132297805976123
2	634	129.746741672421	0.222930908203125	0.22296142578125	-1.28143310546875E-06	-2.85710143543838E-07	-173993.8125	0.000132168424897827
2	635	129.847449672167	0.212860107421875	0.212860107421875	-1.27716064453125E-06	-2.71856549716176E-07	-166666.671875	0.00013203959679231
2	636	129.948157671912	0.202789306640625	0.2027587890625	-1.27349853515625E-06	-2.58213020742915E-07	-159214	0.000131911161588505
2	637	130.048865671658	0.192718505859375	0.1927490234375	-1.27227783203125E-06	-2.4523029651391E-07	-151499.15625	0.000131782973767258
2	638	130.149573671404	0.182647705078125	0.182647705078125	-1.27227783203125E-06	-2.32378624787088E-07	-143559.609375	0.000131654844153672
2	639	130.25028167115	0.172576904296875	0.172576904296875	-1.2750244140625E-06	-2.2003976596352E-07	-135351.84375	0.000131526569020934
2	640	130.350989670895	0.162506103515625	0.16253662109375	-1.28021240234375E-06	-2.08081388564096E-07	-126960.671875	0.000131397900986485
2	641	130.451697670641	0.152435302734375	0.152496337890625	-1.2890625E-06	-1.96577303768208E-07	-118300.1953125	0.000131268534460105
2	642	130.552405670387	0.142364501953125	0.142425537109375	-1.302490234375E-06	-1.85507872174639E-07	-109348.640625	0.000131138032884337
2	643	130.653113670133	0.132293701171875	0.132354736328125	-1.3214111328125E-06	-1.74895021132215E-07	-100161.6640625	0.000131005916045979
2	644	130.753821669878	0.122222900390625	0.12225341796875	-1.3482666015625E-06	-1.64830197491028E-07	-90674.515625	0.000130871485453099
2	645	130.854529669624	0.112152099609375	0.1121826171875	-1.38427734375E-06	-1.5529185759533E-07	-81040.5625	0.0001307338825427
2	646	130.95523766937	0.102081298828125	0.10211181640625	-1.43280029296875E-06	-1.46305836778993E-07	-71267.3125	0.000130592045024969
2	647	131.055945669116	0.092010498046875	0.09210205078125	-1.49810791015625E-06	-1.37978801717509E-07	-61478.91796875	0.000130444459500723
2	648	131.156653668861	0.081939697265625	0.08197021484375	-1.5838623046875E-06	-1.29829530237657E-07	-51753.37109375	0.000130289263324812
2	649	131.257361668607	0.071868896484375	0.071868896484375	-1.69403076171875E-06	-1.21748115589071E-07	-42424.7890625	0.000130124215502292
2	650	131.358069668353	0.061798095703125	0.061798095703125	-1.83197021484375E-06	-1.13212266228402E-07	-33733.1328125	0.000129946667584591
2	651	131.458777668098	0.051727294921875	0.0517578125	-2.00103759765625E-06	-1.03569320231145E-07	-25865.48828125	0.000129753650981002
2	652	131.559485667844	0.041656494140625	0.0417877197265625	-2.19970703125E-06	-9.19207465699401E-08	-18996.947265625	0.000129542124341242
2	653	131.66019366759	0.031585693359375	0.0316680908203125	-2.42523193359375E-06	-7.68024648323262E-08	-13057.7568359375	0.000129309250041842
2	654	131.760901667336	0.021514892578125	0.0216339111328125	-2.66326904296875E-06	-5.76169263410975E-08	-8123.06689453125	0.000129053019918501
2	655	131.861609667081	0.011444091796875	0.01156005859375	-2.89764404296875E-06	-3.34969314508271E-08	-3989.46801757813	0.000128773011965677
2	656	131.962317666827	0.001373291015625	0.0014923095703125	-3.10516357421875E-06	-4.63386529148124E-09	-480.589721679688	0.000128470739582554
2	657	132.063025666573	-0.008697509765625	-0.00856933593750001	-3.2666015625E-06	2.79926037904943E-08	2623.318359375	0.000128149898955598
2	658	132.163733666319	-0.018768310546875	-0.0186737060546875	-3.37005615234375E-06	6.29314342859288E-08	5541.0673828125	0.000127815714222379
2	659	132.264441666064	-0.028839111328125	-0.02869873046875	-3.41522216796875E-06	9.80125420824152E-08	8403.181640625	0.000127474049804732
2	660	132.36514966581	-0.038909912109375	-0.038787841796875	-3.41064453125E-06	1.32291532395357E-07	11372.583984375	0.000127130333567038
2	661	132.465857665556	-0.048980712890625	-0.0488433837890625	-3.3697509765625E-06	1.64590034046341E-07	14494.6572265625	0.00012678891653195
2	662	132.566565665302	-0.059051513671875	-0.05902099609375	-3.3062744140625E-06	1.95139605807526E-07	17851.208984375	0.00012645275273826
2	663	132.667273665047	-0.069122314453125	-0.06903076171875	-3.23211669921875E-06	2.23115463882095E-07	21357.7578125	0.000126123515656218
2	664	132.767981664793	-0.079193115234375	-0.0791015625	-3.15643310546875E-06	2.49678777208828E-07	25060.427734375	0.00012580183101818
2	665	132.868689664539	-0.089263916015625	-0.089202880859375	-3.08197021484375E-06	2.7492060894474E-07	28943.4609375	0.000125487698824145
2	666	132.969397664285	-0.099334716796875	-0.0992431640625	-3.01300048828125E-06	2.99019689009583E-07	32938.31640625	0.000125180798931979
2	667	133.07010566403	-0.109405517578125	-0.10931396484375	-2.95013427734375E-06	3.2249084824798E-07	37053.8984375	0.000124880534713157
2	668	133.170813663776	-0.119476318359375	-0.119415283203125	-2.8955078125E-06	3.45767887210968E-07	41241.5703125	0.000124586178571917
2	669	133.271521663522	-0.129547119140625	-0.129425048828125	-2.8466796875E-06	3.68431642527867E-07	45465.26953125	0.000124297032016329
2	670	133.372229663267	-0.139617919921875	-0.1395263671875	-2.80426025390625E-06	3.91268258681521E-07	49755.140625	0.000124012483865954
2	671	133.472937663013	-0.149688720703125	-0.1495361328125	-2.767333984375E-06	4.13816394484456E-07	54036.171875	0.000123731937492266
2	672	133.573645662759	-0.159759521484375	-0.159637451171875	-2.7349853515625E-06	4.36606057974132E-07	58368.671875	0.000123454869026318
2	673	133.674353662505	-0.169830322265625	-0.169677734375	-2.70751953125E-06	4.59405782748945E-07	62669.0703125	0.000123180827358738
2	674	133.77506166225	-0.179901123046875	-0.17974853515625	-2.684326171875E-06	4.82503708099102E-07	66962.2578125	0.000122909317724407
2	675	133.875769661996	-0.189971923828125	-0.189849853515625	-2.66448974609375E-06	5.05852995047462E-07	71251.859375	0.00012263999087736
2	676	133.976477661742	-0.200042724609375	-0.199859619140625	-2.64801025390625E-06	5.2923030580132E-07	75475.3984375	0.000122372483019717
2	677	134.077185661488	-0.189971923828125	-0.189788818359375	-2.40570068359375E-06	4.56575065754805E-07	78891.2890625	0.000122117999126203
