Potential,Current,Normalized_Potential,Normalized_Current
1.49993896484375,1.1224365234375e-06,1.435089111328125,0.1581391349213174
1.49490356445313,1.18621826171875e-06,1.430053710937505,0.16712529022271908
1.4898681640625,1.13250732421875e-06,1.425018310546875,0.1595580015478545
1.48483276367188,1.07879638671875e-06,1.419982910156255,0.15199071287298993
1.47979736328125,1.03057861328125e-06,1.414947509765625,0.14519735144896379
1.47476196289063,9.87548828125e-07,1.409912109375005,0.13913492131739616
1.4697265625,9.4879150390625e-07,1.404876708984375,0.1336744346031473
1.46469116210938,9.14306640625e-07,1.399841308593755,0.1288158913062172
1.45965576171875,8.8348388671875e-07,1.394805908203125,0.12447329950984606
1.45462036132813,8.5601806640625e-07,1.389770507812505,0.12060366325565396
1.4495849609375,8.3160400390625e-07,1.384735107421875,0.11716398658526098
1.44454956054688,8.1024169921875e-07,1.379699707031255,0.11415426949866712
1.43951416015625,7.91320800781249e-07,1.374664306640625,0.11148852007911242
1.43447875976563,7.75146484375e-07,1.369628906250005,0.1092097342849772
1.429443359375,7.61718750000001e-07,1.364593505859375,0.10731791211626121
1.42440795898438,7.4920654296875e-07,1.359558105468755,0.10555507782268465
1.41937255859375,7.3822021484375e-07,1.354522705078125,0.10400722332100781
1.41433715820313,7.30285644531251e-07,1.349487304687505,0.10288932840313024
1.4093017578125,7.22656249999999e-07,1.344451904296875,0.10181442944363216
1.40426635742188,7.159423828125e-07,1.339416503906255,0.10086851835927423
1.39923095703125,7.10449218749999e-07,1.334381103515625,0.10009459110843566
1.39419555664063,7.06787109375e-07,1.329345703125005,0.09957863960787686
1.38916015625,7.0343017578125e-07,1.324310302734375,0.09910568406569782
1.38412475585938,7.0037841796875e-07,1.319274902343755,0.09867572448189871
1.37908935546875,6.988525390625e-07,1.314239501953125,0.09846074468999914
1.37405395507813,6.976318359375e-07,1.309204101562505,0.09828876085647947
1.3690185546875,6.97021484374999e-07,1.304168701171875,0.09820276893971952
1.36398315429688,6.97021484375e-07,1.299133300781255,0.09820276893971966
1.35894775390625,6.9732666015625e-07,1.294097900390625,0.09824576489809957
1.35391235351563,6.988525390625e-07,1.289062500000005,0.09846074468999914
1.348876953125,7.000732421875e-07,1.284027099609375,0.09863272852351877
1.34384155273438,7.0068359375e-07,1.278991699218755,0.09871872044027862
1.33880615234375,7.03124999999999e-07,1.273956298828125,0.09906268810731776
1.33377075195313,7.06787109375e-07,1.268920898437505,0.09957863960787686
1.3287353515625,7.086181640625e-07,1.263885498046875,0.09983661535815633
1.32369995117188,7.11669921874999e-07,1.258850097656255,0.1002665749419553
1.31866455078125,7.1380615234375e-07,1.253814697265625,0.10056754665061485
1.31362915039063,7.1746826171875e-07,1.248779296875005,0.10108349815117379
1.30859375,7.20825195312501e-07,1.243743896484375,0.10155645369335296
1.30355834960938,7.2479248046875e-07,1.238708496093755,0.10211540115229169
1.29852294921875,7.275390625e-07,1.233673095703125,0.1025023647777109
1.29348754882813,7.3211669921875e-07,1.228637695312505,0.10314730415340959
1.2884521484375,7.3516845703125e-07,1.223602294921875,0.1035772637372087
1.28341674804688,7.39440917968751e-07,1.218566894531255,0.10417920715452761
1.27838134765625,7.43713378906251e-07,1.213531494140625,0.1047811505718464
1.27334594726563,7.4737548828125e-07,1.208496093750005,0.1052971020724052
1.268310546875,7.51647949218751e-07,1.203460693359375,0.1058990454897241
1.26327514648438,7.56225585937499e-07,1.198425292968755,0.1065439848654225
1.25823974609375,7.60498046875001e-07,1.193389892578125,0.10714592828274155
1.25320434570313,7.65075683593749e-07,1.188354492187505,0.10779086765843997
1.2481689453125,7.69653320312499e-07,1.183319091796875,0.10843580703413865
1.24313354492188,7.75146484375e-07,1.178283691406255,0.1092097342849772
1.23809814453125,7.7850341796875e-07,1.173248291015625,0.10968268982715625
1.23306274414063,7.843017578125e-07,1.168212890625005,0.11049961303637458
1.22802734375,7.89794921875001e-07,1.163177490234375,0.11127354028721313
1.22299194335938,7.940673828125e-07,1.158142089843755,0.11187548370453178
1.21795654296875,7.9986572265625e-07,1.153106689453125,0.11269240691375011
1.21292114257813,8.05358886718749e-07,1.148071289062505,0.11346633416458837
1.2078857421875,8.1024169921875e-07,1.143035888671875,0.11415426949866712
1.20285034179688,8.148193359375e-07,1.138000488281255,0.11479920887436582
1.19781494140625,8.20617675781249e-07,1.132965087890625,0.115616132083584
1.19277954101563,8.26110839843749e-07,1.127929687500005,0.11639005933442241
1.187744140625,8.3221435546875e-07,1.122894287109375,0.1172499785020208
1.18270874023438,8.37097167968749e-07,1.117858886718755,0.11793791383609926
1.17767333984375,8.4381103515625e-07,1.112823486328125,0.11888382492045747
1.17263793945313,8.49304199218751e-07,1.107788085937505,0.11965775217129603
1.1676025390625,8.55102539062499e-07,1.102752685546875,0.1204746753805141
1.16256713867188,8.61206054687501e-07,1.097717285156255,0.12133459454811261
1.15753173828125,8.67919921875e-07,1.092681884765625,0.12228050563247055
1.15249633789063,8.73413085937499e-07,1.087646484375005,0.12305443288330883
1.1474609375,8.80126953124999e-07,1.082611083984375,0.12400034396766689
1.14242553710938,8.8623046875e-07,1.077575683593755,0.12486026313526528
1.13739013671875,8.93249511718749e-07,1.072540283203125,0.12584917017800312
1.13235473632813,8.99658203125001e-07,1.067504882812505,0.12675208530398158
1.1273193359375,9.0606689453125e-07,1.062469482421875,0.1276550004299596
1.12228393554688,9.13391113281251e-07,1.057434082031255,0.1286869034310776
1.11724853515625,9.19799804687499e-07,1.052398681640625,0.1295898185570555
1.11221313476563,9.26513671875e-07,1.047363281250005,0.13053572964141372
1.107177734375,9.33837890625e-07,1.042327880859375,0.1315676326425316
1.10214233398438,9.40551757812501e-07,1.037292480468755,0.1325135437268898
1.09710693359375,9.46655273437499e-07,1.032257080078125,0.1333734628944878
1.09207153320313,9.52758789062501e-07,1.027221679687505,0.1342333820620863
1.0870361328125,9.600830078125e-07,1.022186279296875,0.13526528506320407
1.08200073242188,9.65576171874999e-07,1.017150878906255,0.13603921231404234
1.07696533203125,9.71374511718751e-07,1.012115478515625,0.13685613552326095
1.07192993164063,9.77783203125e-07,1.007080078125005,0.13775905064923896
1.06689453125,9.8388671875e-07,1.002044677734375,0.1386189698168372
1.06185913085938,9.8907470703125e-07,0.9970092773437551,0.13934990110929574
1.05682373046875,9.9517822265625e-07,0.991973876953125,0.14020982027689396
1.05178833007813,9.99755859375e-07,0.9869384765625051,0.14085475965259264
1.0467529296875,1.0052490234375e-06,0.981903076171875,0.14162868690343106
1.04171752929688,1.0101318359375e-06,0.9768676757812551,0.14231662223750965
1.03668212890625,1.0162353515625e-06,0.971832275390625,0.14317654140510794
1.03164672851563,1.02020263671875e-06,0.9667968750000051,0.14373548886404677
1.026611328125,1.025390625e-06,0.961761474609375,0.14446642015650527
1.02157592773438,1.0302734375e-06,0.9567260742187551,0.14515435549058386
1.01654052734375,1.0345458984375e-06,0.951690673828125,0.14575629890790265
1.01150512695313,1.03912353515625e-06,0.9466552734375051,0.14640123828360133
1.0064697265625,1.043701171875e-06,0.941619873046875,0.14704617765930003
1.00143432617188,1.04736328125e-06,0.9365844726562551,0.14756212915985897
0.99639892578125,1.05194091796875e-06,0.931549072265625,0.14820706853555765
0.991363525390625,1.0552978515625e-06,0.926513671875,0.14868002407773667
0.986328125,1.06109619140625e-06,0.921478271484375,0.14949694728695503
0.981292724609375,1.0638427734375e-06,0.91644287109375,0.14988391091237424
0.97625732421875,1.06781005859375e-06,0.911407470703125,0.1504428583713131
0.971221923828125,1.07177734375e-06,0.9063720703125,0.15100180583025194
0.9661865234375,1.075439453125e-06,0.901336669921875,0.1515177573308109
0.961151123046875,1.0784912109375e-06,0.89630126953125,0.15194771691461004
0.95611572265625,1.08184814453125e-06,0.891265869140625,0.15242067245678906
0.951080322265625,1.0845947265625e-06,0.88623046875,0.15280763608220826
0.946044921875,1.0882568359375e-06,0.881195068359375,0.1533235875827672
0.941009521484375,1.09039306640625e-06,0.87615966796875,0.1536245592914266
0.93597412109375,1.0919189453125e-06,0.871124267578125,0.15383953908332615
0.930938720703125,1.09527587890625e-06,0.8660888671875,0.1543124946255052
0.9259033203125,1.09771728515625e-06,0.861053466796875,0.1546564622925445
0.920867919921875,1.09954833984375e-06,0.85601806640625,0.15491443804282395
0.91583251953125,1.10107421875e-06,0.850982666015625,0.15512941783472353
0.910797119140625,1.10321044921875e-06,0.845947265625,0.15543038954338292
0.90576171875,1.10504150390625e-06,0.840911865234375,0.1556883652936624
0.900726318359375,1.10565185546875e-06,0.83587646484375,0.1557743572104222
0.89569091796875,1.1065673828125e-06,0.830841064453125,0.15590334508556195
0.890655517578125,1.1077880859375e-06,0.8258056640625,0.1560753289190816
0.8856201171875,1.1090087890625e-06,0.820770263671875,0.15624731275260123
0.880584716796875,1.1090087890625e-06,0.81573486328125,0.15624731275260123
0.87554931640625,1.10931396484375e-06,0.810699462890625,0.15629030871098115
0.870513916015625,1.1102294921875e-06,0.8056640625,0.15641929658612092
0.865478515625,1.11053466796875e-06,0.800628662109375,0.1564622925445008
0.860443115234375,1.11053466796875e-06,0.79559326171875,0.1564622925445008
0.85540771484375,1.109619140625e-06,0.790557861328125,0.1563333046693611
0.850372314453125,1.10931396484375e-06,0.7855224609375,0.15629030871098115
0.8453369140625,1.10931396484375e-06,0.780487060546875,0.15629030871098115
0.840301513671875,1.10870361328125e-06,0.77545166015625,0.15620431679422134
0.83526611328125,1.1077880859375e-06,0.770416259765625,0.1560753289190816
0.830230712890625,1.10687255859375e-06,0.765380859375,0.15594634104394184
0.8251953125,1.10595703125e-06,0.760345458984375,0.15581735316880213
0.820159912109375,1.10443115234375e-06,0.75531005859375,0.15560237337690255
0.81512451171875,1.1029052734375e-06,0.750274658203125,0.155387393585003
0.810089111328125,1.1016845703125e-06,0.7452392578125,0.15521540975148335
0.8050537109375,1.099853515625e-06,0.740203857421875,0.1549574340012039
0.800018310546875,1.10076904296875e-06,0.73516845703125,0.1550864218763436
0.79498291015625,1.09649658203125e-06,0.730133056640625,0.15448447845902483
0.789947509765625,1.09466552734375e-06,0.72509765625,0.15422650270874536
0.784912109375,1.092529296875e-06,0.720062255859375,0.153925531000086
0.779876708984375,1.08978271484375e-06,0.71502685546875,0.15353856737466676
0.77484130859375,1.0870361328125e-06,0.709991455078125,0.15315160374924755
0.769805908203125,1.083984375e-06,0.7049560546875,0.15272164416544845
0.7647705078125,1.08154296875e-06,0.699920654296875,0.15237767649840914
0.759735107421875,1.07757568359375e-06,0.69488525390625,0.1518187290394703
0.75469970703125,1.07513427734375e-06,0.689849853515625,0.151474761372431
0.749664306640625,1.072998046875e-06,0.684814453125,0.1511737896637716
0.74462890625,1.068115234375e-06,0.679779052734375,0.15048585432969303
0.739593505859375,1.06414794921875e-06,0.67474365234375,0.14992690687075413
0.73455810546875,1.05987548828125e-06,0.669708251953125,0.14932496345343535
0.729522705078125,1.055908203125e-06,0.6646728515625,0.14876601599449651
0.7244873046875,1.0516357421875e-06,0.659637451171875,0.14816407257717773
0.719451904296875,1.0467529296875e-06,0.65460205078125,0.14747613724309913
0.71441650390625,1.04248046875e-06,0.649566650390625,0.14687419382578037
0.709381103515625,1.03729248046875e-06,0.64453125,0.14614326253332185
0.704345703125,1.03271484375e-06,0.639495849609375,0.14549832315762318
0.699310302734375,1.02691650390625e-06,0.63446044921875,0.14468139994840484
0.69427490234375,1.021728515625e-06,0.629425048828125,0.14395046865594635
0.689239501953125,1.01593017578125e-06,0.6243896484375,0.143133545446728
0.6842041015625,1.009521484375e-06,0.619354248046875,0.14223063032074984
0.679168701171875,1.0040283203125e-06,0.61431884765625,0.14145670306991143
0.67413330078125,9.9761962890625e-07,0.609283447265625,0.14055378794393325
0.669097900390625,9.918212890625e-07,0.604248046875,0.13973686473471494
0.6640625,9.85107421875001e-07,0.599212646484375,0.13879095365035699
0.659027099609375,9.79003906250001e-07,0.59417724609375,0.13793103448275876
0.65399169921875,9.72595214843749e-07,0.589141845703125,0.13702811935678033
0.648956298828125,9.661865234375e-07,0.5841064453125,0.1361252042308023
0.6439208984375,9.60083007812501e-07,0.579071044921875,0.13526528506320418
0.638885498046875,9.53369140625e-07,0.57403564453125,0.134319373978846
0.63385009765625,9.46350097656251e-07,0.569000244140625,0.13333046693610814
0.628814697265625,9.4024658203125e-07,0.56396484375,0.13247054776850975
0.623779296875,9.34753417968751e-07,0.558929443359375,0.13169662051767148
0.618743896484375,9.27734375e-07,0.55389404296875,0.13070771347493335
0.61370849609375,9.2193603515625e-07,0.548858642578125,0.129890790265715
0.608673095703125,9.16137695312501e-07,0.5438232421875,0.12907386705649682
0.6036376953125,9.0972900390625e-07,0.538787841796875,0.12817095193051853
0.598602294921875,9.0362548828125e-07,0.53375244140625,0.12731103276292027
0.59356689453125,8.984375e-07,0.528717041015625,0.12658010147046178
0.588531494140625,8.92944335937501e-07,0.523681640625,0.12580617421962348
0.58349609375,8.8714599609375e-07,0.518646240234375,0.124989251010405
0.578460693359375,8.8165283203125e-07,0.51361083984375,0.12421532375956659
0.57342529296875,8.76159667968751e-07,0.508575439453125,0.12344139650872832
0.568389892578125,8.70361328124999e-07,0.5035400390625,0.12262447329950969
0.5633544921875,8.65478515625e-07,0.498504638671875,0.12193653796543125
0.558319091796875,8.59985351562501e-07,0.49346923828125,0.12116261071459296
0.55328369140625,8.55102539062501e-07,0.488433837890625,0.12047467538051437
0.548248291015625,8.50524902343751e-07,0.4833984375,0.11982973600481568
0.543212890625,8.4564208984375e-07,0.478363037109375,0.11914180067073694
0.538177490234375,8.4075927734375e-07,0.47332763671875,0.11845386533665836
0.53314208984375,8.36791992187501e-07,0.468292236328125,0.11789491787771962
0.528106689453125,8.319091796875e-07,0.4632568359375,0.1172069825436409
0.5230712890625,8.282470703125e-07,0.458221435546875,0.11669103104308196
0.518035888671875,8.24890136718749e-07,0.45318603515625,0.11621807550090277
0.51300048828125,8.2061767578125e-07,0.448150634765625,0.11561613208358414
0.507965087890625,8.17260742187499e-07,0.443115234375,0.11514317654140496
0.5029296875,8.148193359375e-07,0.438079833984375,0.11479920887436582
0.497894287109375,8.1207275390625e-07,0.43304443359375,0.1144122452489466
0.49285888671875,8.09326171874999e-07,0.428009033203125,0.11402528162352725
0.487823486328125,8.062744140625e-07,0.4229736328125,0.11359532203972826
0.4827880859375,8.0535888671875e-07,0.417938232421875,0.11346633416458853
0.477752685546875,8.02917480468751e-07,0.41290283203125,0.11312236649754936
0.47271728515625,8.013916015625e-07,0.407867431640625,0.11290738670564966
0.467681884765625,7.98950195312499e-07,0.40283203125,0.11256341903861022
0.462646484375,7.9620361328125e-07,0.397796630859375,0.11217645541319116
0.457611083984375,7.94067382812501e-07,0.39276123046875,0.11187548370453192
0.45257568359375,7.916259765625e-07,0.387725830078125,0.11153151603749248
0.447540283203125,7.8887939453125e-07,0.3826904296875,0.11114455241207327
0.4425048828125,7.855224609375e-07,0.377655029296875,0.11067159686989422
0.437469482421875,7.8277587890625e-07,0.37261962890625,0.11028463324447502
0.43243408203125,7.79113769531251e-07,0.367584228515625,0.1097686817439162
0.427398681640625,7.7545166015625e-07,0.362548828125,0.10925273024335712
0.42236328125,7.72399902343751e-07,0.357513427734375,0.10882277065955814
0.417327880859375,7.6904296875e-07,0.35247802734375,0.10834981511737897
0.41229248046875,7.659912109375e-07,0.347442626953125,0.10791985553357984
0.407257080078125,7.63244628906251e-07,0.3424072265625,0.10753289190816076
0.4022216796875,7.61108398437499e-07,0.337371826171875,0.10723192019950109
0.397186279296875,7.59277343750001e-07,0.33233642578125,0.10697394444922191
0.39215087890625,7.57751464843751e-07,0.327301025390625,0.10675896465732235
0.387115478515625,7.5531005859375e-07,0.322265625,0.10641499699028291
0.382080078125,7.55004882812499e-07,0.317230224609375,0.10637200103190285
0.377044677734375,7.537841796875e-07,0.31219482421875,0.10620001719838335
0.37200927734375,7.5347900390625e-07,0.307159423828125,0.10615702124000344
0.366973876953125,7.537841796875e-07,0.3021240234375,0.10620001719838335
0.3619384765625,7.54699707031249e-07,0.297088623046875,0.10632900507352294
0.356903076171875,7.5531005859375e-07,0.29205322265625,0.10641499699028291
0.35186767578125,7.5592041015625e-07,0.287017822265625,0.10650098890704274
0.346832275390625,7.57446289062501e-07,0.281982421875,0.10671596869894244
0.341796875,7.586669921875e-07,0.276947021484375,0.10688795253246194
0.336761474609375,7.611083984375e-07,0.27191162109375,0.10723192019950124
0.33172607421875,7.62634277343749e-07,0.266876220703125,0.10744689999140067
0.326690673828125,7.65380859375001e-07,0.2618408203125,0.10783386361682015
0.3216552734375,7.68432617187501e-07,0.256805419921875,0.10826382320061928
0.316619873046875,7.7178955078125e-07,0.25177001953125,0.10873677874279818
0.31158447265625,7.7545166015625e-07,0.246734619140625,0.10925273024335712
0.306549072265625,7.79113769531251e-07,0.24169921875,0.1097686817439162
0.301513671875,7.83691406250001e-07,0.236663818359375,0.11041362111961489
0.296478271484375,7.891845703125e-07,0.23162841796875,0.11118754837045318
0.29144287109375,7.952880859375e-07,0.226593017578125,0.11204746753805142
0.286407470703125,8.0108642578125e-07,0.2215576171875,0.11286439074726975
0.2813720703125,8.08105468750001e-07,0.216522216796875,0.11385329779000787
0.276336669921875,8.15734863281251e-07,0.21148681640625,0.11492819674950568
0.27130126953125,8.23974609375e-07,0.206451416015625,0.11608908762576317
0.266265869140625,8.331298828125e-07,0.201416015625,0.11737896637716055
0.26123046875,8.43200683593751e-07,0.196380615234375,0.11879783300369778
0.256195068359375,8.55407714843749e-07,0.19134521484375,0.120517671338894
0.25115966796875,8.6822509765625e-07,0.186309814453125,0.12232350159085045
0.246124267578125,8.82568359375e-07,0.1812744140625,0.12434431163470634
0.2410888671875,8.99658203124999e-07,0.176239013671875,0.12675208530398127
0.236053466796875,9.185791015625e-07,0.17120361328125,0.12941783472353596
0.23101806640625,9.4024658203125e-07,0.166168212890625,0.13247054776850975
0.225982666015625,9.65576171875e-07,0.1611328125,0.13603921231404248
0.220947265625,9.94873046875e-07,0.156097412109375,0.14016682431851404
0.215911865234375,1.02874755859375e-06,0.15106201171875,0.14493937569868431
0.21087646484375,1.06842041015625e-06,0.146026611328125,0.15052885028807292
0.205841064453125,1.11419677734375e-06,0.1409912109375,0.15697824404505975
0.2008056640625,1.16790771484375e-06,0.135955810546875,0.1645455327199243
0.195770263671875,1.23016357421875e-06,0.13092041015625,0.1733167082294264
0.19073486328125,1.30279541015625e-06,0.125885009765625,0.18354974632384555
0.185699462890625,1.387939453125e-06,0.120849609375,0.1955456187118411
0.1806640625,1.48712158203125e-06,0.115814208984375,0.2095193051853126
0.175628662109375,1.60064697265625e-06,0.11077880859375,0.22551380170263993
0.17059326171875,1.73248291015625e-06,0.105743408203125,0.24408805572276204
0.165557861328125,1.884765625e-06,0.1007080078125,0.2655430389543383
0.1605224609375,2.05810546875e-06,0.095672607421875,0.28996474331412847
0.155487060546875,2.254638671875e-06,0.09063720703125,0.317654140510792
0.15045166015625,2.47589111328125e-06,0.085601806640625,0.34882621033622835
