Potential,Current,Normalized_Potential,Normalized_Current
1.49993896484375,9.2620849609375e-07,1.4300537109375,0.13612307140294222
1.49490356445313,9.918212890625e-07,1.42501831054688,0.1457660566917833
1.4898681640625,9.521484375e-07,1.41998291015625,0.13993541442411195
1.48483276367188,9.13085937500001e-07,1.41494750976563,0.13419447434517418
1.47979736328125,8.7677001953125e-07,1.409912109375,0.12885719411553642
1.47476196289063,8.4503173828125e-07,1.40487670898438,0.12419268030139935
1.4697265625,8.15734863281249e-07,1.39984130859375,0.11988697524219576
1.46469116210938,7.9010009765625e-07,1.39480590820313,0.1161194833153929
1.45965576171875,7.6751708984375e-07,1.3897705078125,0.1128005023322569
1.45462036132813,7.48291015624999e-07,1.38473510742188,0.10997488338715451
1.4495849609375,7.31506347656251e-07,1.37969970703125,0.10750807319698616
1.44454956054688,7.16552734375001e-07,1.37466430664063,0.10531036957301773
1.43951416015625,7.0343017578125e-07,1.36962890625,0.10338177251524938
1.43447875976563,6.9305419921875e-07,1.36459350585938,0.1018568353067815
1.429443359375,6.84509277343751e-07,1.35955810546875,0.10060100466451397
1.42440795898438,6.77490234375e-07,1.35452270507813,0.09956942949407967
1.41937255859375,6.73217773437501e-07,1.3494873046875,0.09894151417294597
1.41433715820313,6.683349609375e-07,1.34445190429688,0.09822389666307858
1.4093017578125,6.66198730468749e-07,1.33941650390625,0.09790993900251152
1.40426635742188,6.6558837890625e-07,1.33438110351563,0.09782023681377826
1.39923095703125,6.6650390625e-07,1.329345703125,0.09795479009687837
1.39419555664063,6.68945312500001e-07,1.32431030273438,0.09831359885181214
1.38916015625,6.71997070312499e-07,1.31927490234375,0.09876210979547886
1.38412475585938,6.7626953125e-07,1.31423950195313,0.09939002511661285
1.37908935546875,6.8206787109375e-07,1.3092041015625,0.1002421959095802
1.37405395507813,6.88781738281251e-07,1.30416870117188,0.10122891998564781
1.3690185546875,6.96716308593751e-07,1.29913330078125,0.10239504843918207
1.36398315429688,7.04345703124999e-07,1.29409790039063,0.10351632579834934
1.35894775390625,7.1319580078125e-07,1.2890625,0.10481700753498385
1.35391235351563,7.2174072265625e-07,1.28402709960938,0.10607283817725154
1.348876953125,7.31201171875001e-07,1.27899169921875,0.10746322210261945
1.34384155273438,7.391357421875e-07,1.27395629882813,0.10862935055615357
1.33880615234375,7.47070312500001e-07,1.2689208984375,0.10979547900968799
1.33377075195313,7.5408935546875e-07,1.26388549804688,0.110827054180122
1.3287353515625,7.59582519531249e-07,1.25885009765625,0.1116343738787225
1.32369995117188,7.6416015625e-07,1.25381469726563,0.11230714029422319
1.31866455078125,7.68432617187501e-07,1.248779296875,0.11293505561535716
1.31362915039063,7.70874023437501e-07,1.24374389648438,0.11329386437029078
1.30859375,7.720947265625e-07,1.23870849609375,0.11347326874775744
1.30355834960938,7.720947265625e-07,1.23367309570313,0.11347326874775744
1.29852294921875,7.720947265625e-07,1.2286376953125,0.11347326874775744
1.29348754882813,7.708740234375e-07,1.22360229492188,0.11329386437029064
1.2884521484375,7.6934814453125e-07,1.21856689453125,0.11306960889845713
1.28341674804688,7.6812744140625e-07,1.21353149414063,0.11289020452099033
1.27838134765625,7.66601562499999e-07,1.20849609375,0.11266594904915667
1.27334594726563,7.65380859375001e-07,1.20346069335938,0.11248654467169014
1.268310546875,7.647705078125e-07,1.19842529296875,0.11239684248295659
1.26327514648438,7.647705078125e-07,1.19338989257813,0.11239684248295659
1.25823974609375,7.65686035156249e-07,1.1883544921875,0.11253139576605654
1.25320434570313,7.659912109375e-07,1.18331909179688,0.1125762468604234
1.2481689453125,7.67822265625e-07,1.17828369140625,0.1128453534266236
1.24313354492188,7.69653320312501e-07,1.17324829101563,0.11311445999282398
1.23809814453125,7.72705078125001e-07,1.168212890625,0.11356297093649101
1.23306274414063,7.763671875e-07,1.16317749023438,0.11410118406889129
1.22802734375,7.80639648437499e-07,1.15814208984375,0.11472909939002497
1.22299194335938,7.85217285156251e-07,1.15310668945313,0.11540186580552582
1.21795654296875,7.91320800781251e-07,1.1480712890625,0.11629888769285986
1.21292114257813,7.9803466796875e-07,1.14303588867188,0.11728561176892717
1.2078857421875,8.0413818359375e-07,1.13800048828125,0.11818263365626121
1.20285034179688,8.11767578125e-07,1.13296508789063,0.11930391101542878
1.19781494140625,8.209228515625e-07,1.1279296875,0.12064944384642987
1.19277954101563,8.30078125e-07,1.12289428710938,0.12199497667743092
1.187744140625,8.4075927734375e-07,1.11785888671875,0.12356476498026553
1.18270874023438,8.526611328125e-07,1.11282348632813,0.1253139576605669
1.17767333984375,8.65783691406251e-07,1.1077880859375,0.1272425547183353
1.17263793945313,8.80126953124999e-07,1.10275268554688,0.12935055615357
1.1676025390625,8.9599609375e-07,1.09771728515625,0.1316828130606387
1.16256713867188,9.1522216796875e-07,1.09268188476563,0.13450843200574095
1.15753173828125,9.35058593749999e-07,1.087646484375,0.13742375313957647
1.15249633789063,9.57641601562501e-07,1.08261108398438,0.14074273412271274
1.1474609375,9.82666015625e-07,1.07757568359375,0.14442052386078222
1.14242553710938,1.0113525390625e-06,1.07254028320313,0.14863652673125227
1.13739013671875,1.04278564453125e-06,1.0675048828125,0.1532561894510226
1.13235473632813,1.07696533203125e-06,1.06246948242188,0.1582795120200933
1.1273193359375,1.11480712890625e-06,1.05743408203125,0.1638410477215644
1.12228393554688,1.1566162109375e-06,1.05239868164063,0.16998564764980267
1.11724853515625,1.201171875e-06,1.04736328125,0.17653390742734124
1.11221313476563,1.2469482421875e-06,1.04232788085938,0.18326157158234663
1.107177734375,1.295166015625e-06,1.03729248046875,0.19034804449228562
1.10214233398438,1.34490966796875e-06,1.03225708007813,0.19765877287405811
1.09710693359375,1.39434814453125e-06,1.0272216796875,0.20492465016146397
1.09207153320313,1.441650390625e-06,1.02218627929688,0.21187656978830283
1.0870361328125,1.48712158203125e-06,1.01715087890625,0.21855938284894152
1.08200073242188,1.52740478515625e-06,1.01211547851563,0.22447972730534624
1.07696533203125,1.5625e-06,1.007080078125,0.22963760315751705
1.07192993164063,1.591796875e-06,1.00204467773438,0.2339433082167205
1.06689453125,1.61346435546875e-06,0.99700927734375,0.23712773591675637
1.06185913085938,1.6278076171875e-06,0.9919738769531301,0.23923573735199138
1.05682373046875,1.63360595703125e-06,0.9869384765625,0.24008790814495876
1.05178833007813,1.63177490234375e-06,0.9819030761718801,0.2398188015787585
1.0467529296875,1.624755859375e-06,0.97686767578125,0.2387872264083244
1.04171752929688,1.61285400390625e-06,0.9718322753906301,0.23703803372802298
1.03668212890625,1.595458984375e-06,0.966796875,0.23448152134912092
1.03164672851563,1.575927734375e-06,0.9617614746093801,0.23161105130965196
1.026611328125,1.55517578125e-06,0.95672607421875,0.22856117689271618
1.02157592773438,1.534423828125e-06,0.9516906738281301,0.2255113024757804
1.01654052734375,1.51611328125e-06,0.9466552734375,0.22282023681377827
1.01150512695313,1.50054931640625e-06,0.9416198730468801,0.22053283100107643
1.0064697265625,1.4898681640625e-06,0.93658447265625,0.21896304269824185
1.00143432617188,1.48651123046875e-06,0.9315490722656301,0.21846968066020814
0.99639892578125,1.4886474609375e-06,0.926513671875,0.21878363832077502
0.991363525390625,1.4990234375e-06,0.921478271484375,0.2203085755292429
0.986328125,1.519775390625e-06,0.91644287109375,0.22335844994617868
0.981292724609375,1.55029296875e-06,0.911407470703125,0.22784355938284895
0.97625732421875,1.58935546875e-06,0.9063720703125,0.2335844994617869
0.971221923828125,1.640625e-06,0.901336669921875,0.2411194833153929
0.9661865234375,1.70318603515625e-06,0.89630126953125,0.2503139576605669
0.961151123046875,1.7755126953125e-06,0.891265869140625,0.26094366702547545
0.95611572265625,1.8585205078125e-06,0.88623046875,0.27314316469321853
0.951080322265625,1.95068359375e-06,0.881195068359375,0.2866881951919627
0.946044921875,2.05047607421875e-06,0.87615966796875,0.30135450304987443
0.941009521484375,2.1533203125e-06,0.871124267578125,0.31646932185145316
0.93597412109375,2.25830078125e-06,0.8660888671875,0.33189809831359884
0.930938720703125,2.36236572265625e-06,0.861053466796875,0.34719232149264445
0.9259033203125,2.4609375e-06,0.85601806640625,0.36167922497308935
0.920867919921875,2.55157470703125e-06,0.850982666015625,0.37500000000000006
0.91583251953125,2.62969970703125e-06,0.845947265625,0.3864818801578759
0.910797119140625,2.69073486328125e-06,0.840911865234375,0.39545209903121636
0.90576171875,2.73468017578125e-06,0.83587646484375,0.4019106566200215
0.900726318359375,2.75726318359375e-06,0.830841064453125,0.40522963760315756
0.89569091796875,2.7581787109375e-06,0.8258056640625,0.40536419088625764
0.890655517578125,2.7392578125e-06,0.820770263671875,0.40258342303552214
0.8856201171875,2.7020263671875e-06,0.81573486328125,0.39711158952278436
0.880584716796875,2.64739990234375e-06,0.810699462890625,0.3890832436311446
0.87554931640625,2.58026123046875e-06,0.8056640625,0.3792160028704701
0.870513916015625,2.50518798828125e-06,0.800628662109375,0.3681826336562612
0.865478515625,2.425537109375e-06,0.79559326171875,0.35647649802655185
0.860443115234375,2.34527587890625e-06,0.790557861328125,0.3446806602081091
0.85540771484375,2.26776123046875e-06,0.7855224609375,0.3332884822389666
0.850372314453125,2.19818115234375e-06,0.780487060546875,0.32306243272335844
0.8453369140625,2.139892578125e-06,0.77545166015625,0.3144958736993183
0.840301513671875,2.09442138671875e-06,0.770416259765625,0.3078130606386796
0.83526611328125,2.0648193359375e-06,0.765380859375,0.3034625044851094
0.830230712890625,2.0538330078125e-06,0.760345458984375,0.3018478650879082
0.8251953125,2.06298828125e-06,0.75531005859375,0.3031933979189092
0.820159912109375,2.09197998046875e-06,0.750274658203125,0.307454251883746
0.81512451171875,2.14508056640625e-06,0.7452392578125,0.31525834230355226
0.810089111328125,2.2216796875e-06,0.740203857421875,0.32651596698959456
0.8050537109375,2.32177734375e-06,0.73516845703125,0.341227125941873
0.800018310546875,2.4481201171875e-06,0.730133056640625,0.35979547900968784
0.79498291015625,2.59063720703125e-06,0.72509765625,0.3807409400789379
0.789947509765625,2.75604248046875e-06,0.720062255859375,0.4050502332256907
0.784912109375,2.93853759765625e-06,0.71502685546875,0.43187118765697885
0.779876708984375,3.13446044921875e-06,0.709991455078125,0.4606655902404019
0.77484130859375,3.33984375e-06,0.7049560546875,0.4908503767491927
0.769805908203125,3.5491943359375e-06,0.699920654296875,0.5216182274847506
0.7647705078125,3.75457763671875e-06,0.69488525390625,0.5518030139935415
0.759735107421875,3.94927978515625e-06,0.689849853515625,0.5804180121994976
0.75469970703125,4.12628173828125e-06,0.684814453125,0.6064316469321852
0.749664306640625,4.28253173828125e-06,0.679779052734375,0.629395407247937
0.74462890625,4.400634765625e-06,0.67474365234375,0.6467527807678507
0.739593505859375,4.48089599609375e-06,0.669708251953125,0.6585486185862934
0.73455810546875,4.52056884765625e-06,0.6646728515625,0.6643792608539649
0.729522705078125,4.5166015625e-06,0.659637451171875,0.6637961966271977
0.7244873046875,4.46563720703125e-06,0.65460205078125,0.6563060638679583
0.719451904296875,4.3695068359375e-06,0.649566650390625,0.6421779691424471
0.71441650390625,4.2333984375e-06,0.64453125,0.6221743810548979
0.709381103515625,4.06097412109375e-06,0.639495849609375,0.5968335127377108
0.704345703125,3.85772705078125e-06,0.63446044921875,0.5669626838894869
0.699310302734375,3.6322021484375e-06,0.629425048828125,0.5338177251524937
0.69427490234375,3.3929443359375e-06,0.6243896484375,0.49865446716899897
0.689239501953125,3.148193359375e-06,0.619354248046875,0.46268388948690353
0.6842041015625,2.901611328125e-06,0.61431884765625,0.4264442052386078
0.679168701171875,2.6617431640625e-06,0.609283447265625,0.39119124506637964
0.67413330078125,2.43408203125e-06,0.604248046875,0.35773232866881954
0.669097900390625,2.2198486328125e-06,0.599212646484375,0.32624686042339435
0.6640625,2.0220947265625e-06,0.59417724609375,0.2971833512737711
0.659027099609375,1.84234619140625e-06,0.589141845703125,0.2707660566917833
0.65399169921875,1.68212890625e-06,0.5841064453125,0.24721923214926447
0.648956298828125,1.53961181640625e-06,0.579071044921875,0.22627377108001437
0.6439208984375,1.41357421875e-06,0.57403564453125,0.20775026910656622
0.638885498046875,1.30462646484375e-06,0.569000244140625,0.1917384284176534
0.63385009765625,1.21063232421875e-06,0.56396484375,0.17792429135270899
0.628814697265625,1.1279296875e-06,0.558929443359375,0.16576964477933262
0.623779296875,1.0577392578125e-06,0.55389404296875,0.15545389307499105
0.618743896484375,9.9700927734375e-07,0.548858642578125,0.14652852529601723
0.61370849609375,9.46044921875e-07,0.5438232421875,0.1390383925367779
0.608673095703125,9.0179443359375e-07,0.538787841796875,0.13253498385360604
0.6036376953125,8.636474609375e-07,0.53375244140625,0.1269285970577682
0.598602294921875,8.30993652343751e-07,0.528717041015625,0.12212952996053118
0.59356689453125,8.03527832031251e-07,0.523681640625,0.11809293146752796
0.588531494140625,7.7972412109375e-07,0.518646240234375,0.11459454610692502
0.58349609375,7.5836181640625e-07,0.51361083984375,0.11145496950125584
0.578460693359375,7.4127197265625e-07,0.508575439453125,0.10894330821672049
0.57342529296875,7.2601318359375e-07,0.5035400390625,0.10670075349838536
0.568389892578125,7.11975097656251e-07,0.498504638671875,0.10463760315751719
0.5633544921875,7.000732421875e-07,0.49346923828125,0.10288841047721564
0.558319091796875,6.89697265625e-07,0.488433837890625,0.10136347326874776
0.55328369140625,6.8084716796875e-07,0.4833984375,0.1000627915321134
0.548248291015625,6.73217773437501e-07,0.478363037109375,0.09894151417294597
0.543212890625,6.65283203125e-07,0.47332763671875,0.09777538571941155
0.538177490234375,6.591796875e-07,0.468292236328125,0.09687836383207751
0.53314208984375,6.53381347656251e-07,0.4632568359375,0.09602619303911031
0.528106689453125,6.48193359375e-07,0.458221435546875,0.09526372443487621
0.5230712890625,6.439208984375e-07,0.45318603515625,0.09463580911374238
0.518035888671875,6.40258789062499e-07,0.448150634765625,0.0940975959813418
0.51300048828125,6.365966796875e-07,0.443115234375,0.09355938284894152
0.507965087890625,6.34155273437499e-07,0.438079833984375,0.09320057409400775
0.5029296875,6.317138671875e-07,0.43304443359375,0.09284176533907428
0.497894287109375,6.29577636718749e-07,0.428009033203125,0.09252780767850721
0.49285888671875,6.2774658203125e-07,0.4229736328125,0.09225870111230715
0.487823486328125,6.2591552734375e-07,0.417938232421875,0.09198959454610693
0.4827880859375,6.24389648437501e-07,0.41290283203125,0.09176533907427356
0.477752685546875,6.23474121093751e-07,0.407867431640625,0.09163078579117345
0.47271728515625,6.21643066406251e-07,0.40283203125,0.09136167922497325
0.467681884765625,6.207275390625e-07,0.397796630859375,0.09122712594187299
0.462646484375,6.182861328125e-07,0.39276123046875,0.09086831718693937
0.457611083984375,6.16455078125e-07,0.387725830078125,0.09059921062073914
0.45257568359375,6.14013671874999e-07,0.3826904296875,0.09024040186580538
0.447540283203125,6.11267089843751e-07,0.377655029296875,0.08983674201650536
0.4425048828125,6.08520507812499e-07,0.37261962890625,0.08943308216720475
0.437469482421875,6.0546875e-07,0.367584228515625,0.08898457122353785
0.43243408203125,6.02111816406251e-07,0.362548828125,0.08849120918550428
0.427398681640625,5.99365234374999e-07,0.357513427734375,0.08808754933620366
0.42236328125,5.95703124999999e-07,0.35247802734375,0.08754933620380323
0.417327880859375,5.92041015625e-07,0.347442626953125,0.08701112307140295
0.41229248046875,5.89599609374999e-07,0.3424072265625,0.08665231431646916
0.407257080078125,5.86547851562499e-07,0.337371826171875,0.08620380337280215
0.4022216796875,5.8441162109375e-07,0.33233642578125,0.08588984571223539
0.397186279296875,5.82580566406249e-07,0.327301025390625,0.08562073914603502
0.39215087890625,5.81054687499999e-07,0.322265625,0.08539648367420151
0.387115478515625,5.79223632812499e-07,0.317230224609375,0.08512737710800128
0.382080078125,5.7830810546875e-07,0.31219482421875,0.08499282382490134
0.377044677734375,5.77087402343751e-07,0.307159423828125,0.08481341944743467
0.37200927734375,5.767822265625e-07,0.3021240234375,0.08476856835306781
0.366973876953125,5.76171875000001e-07,0.297088623046875,0.08467886616433455
0.3619384765625,5.7647705078125e-07,0.29205322265625,0.08472371725870112
0.356903076171875,5.7647705078125e-07,0.287017822265625,0.08472371725870112
0.35186767578125,5.77392578124999e-07,0.281982421875,0.08485827054180108
0.346832275390625,5.77087402343751e-07,0.276947021484375,0.08481341944743467
0.341796875,5.7830810546875e-07,0.27191162109375,0.08499282382490134
0.336761474609375,5.8013916015625e-07,0.266876220703125,0.08526193039110154
0.33172607421875,5.8135986328125e-07,0.2618408203125,0.08544133476856836
0.326690673828125,5.8319091796875e-07,0.256805419921875,0.08571044133476856
0.3216552734375,5.85327148437499e-07,0.25177001953125,0.08602439899533534
0.316619873046875,5.88073730468749e-07,0.246734619140625,0.08642805884463567
0.31158447265625,5.9051513671875e-07,0.24169921875,0.08678686759956943
0.306549072265625,5.94482421875001e-07,0.236663818359375,0.0873699318263367
0.301513671875,5.987548828125e-07,0.23162841796875,0.0879978471474704
0.296478271484375,6.0272216796875e-07,0.226593017578125,0.08858091137423754
0.29144287109375,6.0760498046875e-07,0.2215576171875,0.08929852888410478
0.286407470703125,6.134033203125e-07,0.216522216796875,0.09015069967707212
0.2813720703125,6.20422363281251e-07,0.21148681640625,0.09118227484750642
0.276336669921875,6.2744140625e-07,0.206451416015625,0.09221385001794044
0.27130126953125,6.353759765625e-07,0.201416015625,0.09337997847147471
0.266265869140625,6.44836425781251e-07,0.196380615234375,0.09477036239684264
0.26123046875,6.5643310546875e-07,0.19134521484375,0.09647470398277719
0.256195068359375,6.6802978515625e-07,0.186309814453125,0.09817904556871188
0.25115966796875,6.82983398437501e-07,0.1812744140625,0.10037674919268044
0.246124267578125,6.9854736328125e-07,0.176239013671875,0.10266415500538213
0.2410888671875,7.18078613281251e-07,0.17120361328125,0.10553462504485125
0.236053466796875,7.39440917968751e-07,0.166168212890625,0.10867420165052043
0.23101806640625,7.6446533203125e-07,0.1611328125,0.11235199138858988
0.225982666015625,7.9376220703125e-07,0.156097412109375,0.11665769644779332
0.220947265625,8.2763671875e-07,0.15106201171875,0.1216361679224973
0.215911865234375,8.66088867187499e-07,0.146026611328125,0.1272874058127017
0.21087646484375,9.1217041015625e-07,0.1409912109375,0.13405992106207393
0.205841064453125,9.65270996093751e-07,0.135955810546875,0.14186401148188033
0.2008056640625,1.0272216796875e-06,0.13092041015625,0.15096878363832078
0.195770263671875,1.09832763671875e-06,0.125885009765625,0.16141908862576249
0.19073486328125,1.181640625e-06,0.120849609375,0.17366343738787227
0.185699462890625,1.27777099609375e-06,0.115814208984375,0.18779153211338356
0.1806640625,1.38946533203125e-06,0.11077880859375,0.2042070326515967
0.175628662109375,1.51824951171875e-06,0.105743408203125,0.22313419447434518
0.17059326171875,1.66656494140625e-06,0.1007080078125,0.2449318263365626
0.165557861328125,1.83746337890625e-06,0.095672607421875,0.27004843918191607
0.1605224609375,2.0306396484375e-06,0.09063720703125,0.2984391819160388
0.155487060546875,2.24761962890625e-06,0.085601806640625,0.33032831001076424
0.15045166015625,2.4908447265625e-06,0.08056640625,0.3660746322210262
0.145416259765625,2.7606201171875e-06,0.075531005859375,0.40572299964119124
0.140380859375,3.05419921875e-06,0.07049560546875,0.44886975242195915
0.135345458984375,3.37158203125e-06,0.065460205078125,0.49551489056332976
